SpectraSuite Data File
++++++++++++++++++++++++++++++++++++
Date: Wed Sep 11 16:00:30 GMT-03:00 2024
User: Lavfis
Dark Spectrum Present: No
Reference Spectrum Present: No
Number of Sampled Component Spectra: 1
Spectrometers: USB4F02573
Integration Time (usec): 100000 (USB4F02573)
Spectra Averaged: 1 (USB4F02573)
Boxcar Smoothing: 0 (USB4F02573)
Correct for Electrical Dark: No (USB4F02573)
Strobe/Lamp Enabled: No (USB4F02573)
Correct for Detector Non-linearity: No (USB4F02573)
Correct for Stray Light: No (USB4F02573)
Number of Pixels in Processed Spectrum: 3648
>>>>>Begin Processed Spectral Data<<<<<
345,22	1290,22
345,44	1290,22
345,66	1290,22
345,88	1275,88
346,10	1239,02
346,32	1517,54
346,54	1519,59
346,75	1437,67
346,97	1476,59
347,19	1490,92
347,41	1439,72
347,63	1447,91
347,85	1515,50
348,07	1515,50
348,29	1501,16
348,51	1406,95
348,73	1464,30
348,95	1396,71
349,16	1406,95
349,38	1439,72
349,60	1480,68
349,82	1540,07
350,04	1497,07
350,26	1566,70
350,48	1503,21
350,70	1609,70
350,92	1538,02
351,14	1544,17
351,35	1540,07
351,57	1515,50
351,79	1443,82
352,01	1462,25
352,23	1501,16
352,45	1521,64
352,67	1499,11
352,89	1517,54
353,10	1495,02
353,32	1529,83
353,54	1540,07
353,76	1521,64
353,98	1544,17
354,20	1495,02
354,42	1515,50
354,64	1564,65
354,85	1525,74
355,07	1464,30
355,29	1464,30
355,51	1480,68
355,73	1517,54
355,95	1441,77
356,17	1507,30
356,38	1435,63
356,60	1517,54
356,82	1499,11
357,04	1486,83
357,26	1462,25
357,48	1560,55
357,69	1466,35
357,91	1458,15
358,13	1535,98
358,35	1619,94
358,57	1544,17
358,79	1560,55
359,01	1540,07
359,22	1564,65
359,44	1531,88
359,66	1507,30
359,88	1505,26
360,10	1509,35
360,32	1497,07
360,53	1476,59
360,75	1585,13
360,97	1531,88
361,19	1621,99
361,41	1578,98
361,62	1597,42
361,84	1533,93
362,06	1472,49
362,28	1468,39
362,50	1595,37
362,72	1460,20
362,93	1486,83
363,15	1435,63
363,37	1507,30
363,59	1527,78
363,81	1431,53
364,02	1593,32
364,24	1507,30
364,46	1597,42
364,68	1466,35
364,90	1662,95
365,11	1662,95
365,33	1638,38
365,55	1527,78
365,77	1570,79
365,99	1484,78
366,20	1691,62
366,42	1628,14
366,64	1454,06
366,86	1542,12
367,07	1564,65
367,29	1527,78
367,51	1507,30
367,73	1525,74
367,95	1552,36
368,16	1550,31
368,38	1581,03
368,60	1515,50
368,82	1531,88
369,03	1662,95
369,25	1566,70
369,47	1568,74
369,69	1542,12
369,91	1552,36
370,12	1542,12
370,34	1431,53
370,56	1486,83
370,78	1511,40
370,99	1566,70
371,21	1546,22
371,43	1490,92
371,65	1449,96
371,86	1490,92
372,08	1583,08
372,30	1517,54
372,52	1566,70
372,73	1529,83
372,95	1538,02
373,17	1509,35
373,39	1562,60
373,60	1544,17
373,82	1507,30
374,04	1501,16
374,26	1568,74
374,47	1521,64
374,69	1509,35
374,91	1646,57
375,12	1548,26
375,34	1456,11
375,56	1560,55
375,78	1535,98
375,99	1464,30
376,21	1609,70
376,43	1505,26
376,65	1552,36
376,86	1597,42
377,08	1531,88
377,30	1513,45
377,51	1529,83
377,73	1574,89
377,95	1560,55
378,17	1603,56
378,38	1554,41
378,60	1527,78
378,82	1574,89
379,03	1581,03
379,25	1572,84
379,47	1646,57
379,68	1480,68
379,90	1441,77
380,12	1507,30
380,34	1511,40
380,55	1609,70
380,77	1564,65
380,99	1556,46
381,20	1566,70
381,42	1523,69
381,64	1445,87
381,85	1556,46
382,07	1454,06
382,29	1488,87
382,50	1503,21
382,72	1583,08
382,94	1542,12
383,15	1517,54
383,37	1572,84
383,59	1542,12
383,80	1556,46
384,02	1607,66
384,24	1544,17
384,45	1554,41
384,67	1558,50
384,89	1474,54
385,10	1531,88
385,32	1624,04
385,54	1581,03
385,75	1488,87
385,97	1527,78
386,19	1638,38
386,40	1540,07
386,62	1556,46
386,84	1540,07
387,05	1531,88
387,27	1495,02
387,49	1505,26
387,70	1533,93
387,92	1591,27
388,14	1511,40
388,35	1558,50
388,57	1578,98
388,79	1529,83
389,00	1533,93
389,22	1488,87
389,43	1552,36
389,65	1560,55
389,87	1538,02
390,08	1486,83
390,30	1552,36
390,52	1560,55
390,73	1593,32
390,95	1478,63
391,17	1548,26
391,38	1593,32
391,60	1587,18
391,81	1628,14
392,03	1501,16
392,25	1482,73
392,46	1497,07
392,68	1662,95
392,89	1568,74
393,11	1562,60
393,33	1581,03
393,54	1482,73
393,76	1521,64
393,98	1578,98
394,19	1499,11
394,41	1538,02
394,62	1435,63
394,84	1572,84
395,06	1523,69
395,27	1566,70
395,49	1523,69
395,70	1613,80
395,92	1568,74
396,13	1490,92
396,35	1650,66
396,57	1458,15
396,78	1495,02
397,00	1482,73
397,21	1624,04
397,43	1632,23
397,65	1566,70
397,86	1560,55
398,08	1544,17
398,29	1624,04
398,51	1527,78
398,72	1589,22
398,94	1593,32
399,16	1578,98
399,37	1521,64
399,59	1689,57
399,80	1564,65
400,02	1564,65
400,23	1511,40
400,45	1552,36
400,67	1566,70
400,88	1583,08
401,10	1540,07
401,31	1495,02
401,53	1564,65
401,74	1468,39
401,96	1533,93
402,17	1566,70
402,39	1550,31
402,61	1568,74
402,82	1576,94
403,04	1667,05
403,25	1605,61
403,47	1640,42
403,68	1589,22
403,90	1673,19
404,11	1511,40
404,33	1464,30
404,54	1593,32
404,76	1535,98
404,97	1509,35
405,19	1640,42
405,41	1630,18
405,62	1662,95
405,84	1495,02
406,05	1615,85
406,27	1558,50
406,48	1607,66
406,70	1550,31
406,91	1636,33
407,13	1607,66
407,34	1523,69
407,56	1736,68
407,77	1525,74
407,99	1609,70
408,20	1650,66
408,42	1642,47
408,63	1640,42
408,85	1560,55
409,06	1566,70
409,28	1701,86
409,49	1572,84
409,71	1546,22
409,92	1632,23
410,14	1576,94
410,35	1728,49
410,57	1611,75
410,78	1486,83
411,00	1646,57
411,21	1658,85
411,43	1593,32
411,64	1501,16
411,86	1562,60
412,07	1703,91
412,29	1570,79
412,50	1533,93
412,72	1617,90
412,93	1683,43
413,15	1630,18
413,36	1591,27
413,58	1638,38
413,79	1646,57
414,01	1632,23
414,22	1646,57
414,43	1624,04
414,65	1636,33
414,86	1486,83
415,08	1595,37
415,29	1587,18
415,51	1511,40
415,72	1568,74
415,94	1581,03
416,15	1591,27
416,37	1644,52
416,58	1562,60
416,80	1581,03
417,01	1544,17
417,22	1572,84
417,44	1615,85
417,65	1624,04
417,87	1593,32
418,08	1718,25
418,30	1562,60
418,51	1607,66
418,73	1640,42
418,94	1583,08
419,15	1632,23
419,37	1583,08
419,58	1593,32
419,80	1529,83
420,01	1615,85
420,23	1593,32
420,44	1595,37
420,65	1581,03
420,87	1615,85
421,08	1583,08
421,30	1675,24
421,51	1583,08
421,73	1626,09
421,94	1482,73
422,15	1558,50
422,37	1578,98
422,58	1558,50
422,80	1466,35
423,01	1652,71
423,22	1492,97
423,44	1572,84
423,65	1601,51
423,87	1568,74
424,08	1628,14
424,29	1615,85
424,51	1542,12
424,72	1570,79
424,94	1591,27
425,15	1568,74
425,36	1615,85
425,58	1486,83
425,79	1681,38
426,01	1527,78
426,22	1626,09
426,43	1687,53
426,65	1566,70
426,86	1490,92
427,08	1628,14
427,29	1497,07
427,50	1587,18
427,72	1572,84
427,93	1585,13
428,14	1568,74
428,36	1632,23
428,57	1607,66
428,79	1632,23
429,00	1576,94
429,21	1535,98
429,43	1683,43
429,64	1617,90
429,85	1568,74
430,07	1566,70
430,28	1585,13
430,49	1495,02
430,71	1490,92
430,92	1589,22
431,14	1591,27
431,35	1644,52
431,56	1644,52
431,78	1654,76
431,99	1671,14
432,20	1642,47
432,42	1640,42
432,63	1677,29
432,84	1531,88
433,06	1665,00
433,27	1632,23
433,48	1685,48
433,70	1636,33
433,91	1646,57
434,12	1574,89
434,34	1650,66
434,55	1710,05
434,76	1673,19
434,98	1615,85
435,19	1638,38
435,40	1583,08
435,62	1578,98
435,83	1736,68
436,04	1675,24
436,26	1624,04
436,47	1585,13
436,68	1634,28
436,90	1640,42
437,11	1710,05
437,32	1630,18
437,54	1613,80
437,75	1589,22
437,96	1638,38
438,17	1683,43
438,39	1626,09
438,60	1732,58
438,81	1585,13
439,03	1685,48
439,24	1576,94
439,45	1671,14
439,67	1525,74
439,88	1591,27
440,09	1589,22
440,30	1705,96
440,52	1560,55
440,73	1593,32
440,94	1624,04
441,16	1632,23
441,37	1601,51
441,58	1533,93
441,80	1570,79
442,01	1603,56
442,22	1626,09
442,43	1546,22
442,65	1689,57
442,86	1681,38
443,07	1621,99
443,28	1554,41
443,50	1595,37
443,71	1570,79
443,92	1576,94
444,14	1560,55
444,35	1671,14
444,56	1605,61
444,77	1568,74
444,99	1556,46
445,20	1574,89
445,41	1613,80
445,62	1605,61
445,84	1609,70
446,05	1626,09
446,26	1691,62
446,47	1599,46
446,69	1611,75
446,90	1624,04
447,11	1689,57
447,32	1595,37
447,54	1597,42
447,75	1556,46
447,96	1574,89
448,17	1540,07
448,39	1560,55
448,60	1533,93
448,81	1574,89
449,02	1611,75
449,23	1585,13
449,45	1548,26
449,66	1646,57
449,87	1605,61
450,08	1560,55
450,30	1636,33
450,51	1587,18
450,72	1611,75
450,93	1615,85
451,15	1644,52
451,36	1538,02
451,57	1710,05
451,78	1640,42
451,99	1638,38
452,21	1603,56
452,42	1521,64
452,63	1601,51
452,84	1568,74
453,05	1587,18
453,27	1574,89
453,48	1693,67
453,69	1538,02
453,90	1685,48
454,11	1654,76
454,33	1583,08
454,54	1603,56
454,75	1583,08
454,96	1535,98
455,17	1581,03
455,39	1628,14
455,60	1550,31
455,81	1640,42
456,02	1642,47
456,23	1697,77
456,45	1708,01
456,66	1587,18
456,87	1591,27
457,08	1675,24
457,29	1673,19
457,50	1578,98
457,72	1595,37
457,93	1605,61
458,14	1617,90
458,35	1650,66
458,56	1650,66
458,77	1552,36
458,99	1593,32
459,20	1667,05
459,41	1492,97
459,62	1626,09
459,83	1621,99
460,04	1589,22
460,26	1626,09
460,47	1581,03
460,68	1550,31
460,89	1591,27
461,10	1695,72
461,31	1624,04
461,52	1593,32
461,74	1628,14
461,95	1578,98
462,16	1556,46
462,37	1624,04
462,58	1667,05
462,79	1671,14
463,00	1581,03
463,22	1697,77
463,43	1667,05
463,64	1591,27
463,85	1591,27
464,06	1703,91
464,27	1613,80
464,48	1648,61
464,70	1650,66
464,91	1599,46
465,12	1578,98
465,33	1648,61
465,54	1683,43
465,75	1673,19
465,96	1652,71
466,17	1609,70
466,38	1632,23
466,60	1581,03
466,81	1607,66
467,02	1646,57
467,23	1654,76
467,44	1638,38
467,65	1652,71
467,86	1642,47
468,07	1613,80
468,28	1654,76
468,50	1615,85
468,71	1765,35
468,92	1652,71
469,13	1624,04
469,34	1683,43
469,55	1658,85
469,76	1638,38
469,97	1710,05
470,18	1609,70
470,39	1675,24
470,60	1621,99
470,82	1714,15
471,03	1601,51
471,24	1697,77
471,45	1626,09
471,66	1646,57
471,87	1574,89
472,08	1593,32
472,29	1662,95
472,50	1728,49
472,71	1593,32
472,92	1714,15
473,13	1685,48
473,34	1665,00
473,55	1638,38
473,77	1705,96
473,98	1642,47
474,19	1712,10
474,40	1662,95
474,61	1695,72
474,82	1634,28
475,03	1679,33
475,24	1630,18
475,45	1705,96
475,66	1697,77
475,87	1673,19
476,08	1665,00
476,29	1716,20
476,50	1658,85
476,71	1742,82
476,92	1624,04
477,13	1656,81
477,34	1703,91
477,55	1757,16
477,76	1722,34
477,97	1734,63
478,18	1615,85
478,40	1710,05
478,61	1662,95
478,82	1644,52
479,03	1767,40
479,24	1748,97
479,45	1662,95
479,66	1648,61
479,87	1699,81
480,08	1597,42
480,29	1728,49
480,50	1710,05
480,71	1687,53
480,92	1669,09
481,13	1757,16
481,34	1640,42
481,55	1636,33
481,76	1662,95
481,97	1652,71
482,18	1802,21
482,39	1689,57
482,60	1720,29
482,81	1763,30
483,02	1757,16
483,23	1695,72
483,44	1769,44
483,65	1767,40
483,86	1800,16
484,07	1875,94
484,28	1769,44
484,49	1798,12
484,70	1804,26
484,91	1734,63
485,12	1736,68
485,33	1751,01
485,54	1794,02
485,75	1771,49
485,96	1798,12
486,17	1753,06
486,38	1675,24
486,59	1771,49
486,80	1861,60
487,01	1689,57
487,21	1738,73
487,42	1726,44
487,63	1787,88
487,84	1777,64
488,05	1802,21
488,26	1964,00
488,47	1765,35
488,68	1736,68
488,89	1890,28
489,10	1740,77
489,31	1837,03
489,52	1779,68
489,73	1920,99
489,94	1898,47
490,15	1759,21
490,36	1851,36
490,57	1818,60
490,78	1720,29
490,99	1839,08
491,20	1804,26
491,41	1845,22
491,61	1912,80
491,82	1843,17
492,03	1828,84
492,24	1884,13
492,45	1767,40
492,66	1910,75
492,87	1832,93
493,08	1832,93
493,29	1808,36
493,50	1820,64
493,71	1845,22
493,92	1808,36
494,13	1853,41
494,34	1779,68
494,54	1886,18
494,75	1863,65
494,96	1964,00
495,17	1957,86
495,38	1855,46
495,59	1859,56
495,80	1871,84
496,01	2021,35
496,22	1927,14
496,43	1888,23
496,64	1902,56
496,84	1843,17
497,05	1841,12
497,26	2011,11
497,47	1904,61
497,68	1982,43
497,89	1927,14
498,10	1959,91
498,31	2082,78
498,52	2013,15
498,72	1884,13
498,93	2021,35
499,14	2060,26
499,35	1949,67
499,56	1912,80
499,77	1974,24
499,98	1996,77
500,19	2000,87
500,40	1908,71
500,60	1931,23
500,81	1990,63
501,02	1939,43
501,23	2002,91
501,44	1914,85
501,65	1964,00
501,86	1914,85
502,06	1910,75
502,27	1951,71
502,48	2078,69
502,69	2035,68
502,90	2129,89
503,11	2009,06
503,32	2054,11
503,53	1998,82
503,73	2121,70
503,94	2027,49
504,15	2189,28
504,36	2125,79
504,57	2113,50
504,78	2070,50
504,98	2088,93
505,19	1955,81
505,40	1957,86
505,61	2039,78
505,82	2029,54
506,03	2007,01
506,23	2021,35
506,44	2111,46
506,65	2279,39
506,86	2111,46
507,07	2082,78
507,28	2041,82
507,48	2090,98
507,69	2078,69
507,90	2060,26
508,11	2095,07
508,32	2136,03
508,53	2156,51
508,73	2082,78
508,94	2148,32
509,15	2174,94
509,36	2080,74
509,57	2088,93
509,77	2154,46
509,98	2133,98
510,19	2201,57
510,40	2203,61
510,61	2187,23
510,81	2248,67
511,02	2320,35
511,23	2205,66
511,44	2197,47
511,65	2084,83
511,85	2236,38
512,06	2095,07
512,27	2138,08
512,48	2240,48
512,69	2201,57
512,89	2234,33
513,10	2244,57
513,31	2166,75
513,52	2224,09
513,73	2340,83
513,93	2299,87
514,14	2312,16
514,35	2367,45
514,56	2248,67
514,76	2248,67
514,97	2463,71
515,18	2424,80
515,39	2283,49
515,60	2377,69
515,80	2324,44
516,01	2377,69
516,22	2355,16
516,43	2285,53
516,63	2469,85
516,84	2443,23
517,05	2371,55
517,26	2414,56
517,46	2418,65
517,67	2312,16
517,88	2342,88
518,09	2320,35
518,29	2418,65
518,50	2451,42
518,71	2416,60
518,92	2480,09
519,12	2392,03
519,33	2451,42
519,54	2459,61
519,75	2428,89
519,95	2418,65
520,16	2512,86
520,37	2451,42
520,57	2430,94
520,78	2650,07
520,99	2529,24
521,20	2508,76
521,40	2574,30
521,61	2588,63
521,82	2551,77
522,03	2527,19
522,23	2574,30
522,44	2625,50
522,65	2519,00
522,85	2643,93
523,06	2691,03
523,27	2602,97
523,48	2664,41
523,68	2699,22
523,89	2693,08
524,10	2783,19
524,30	2664,41
524,51	2762,71
524,72	2785,24
524,93	2697,17
525,13	2746,33
525,34	2871,25
525,55	2920,40
525,75	2803,67
525,96	2856,92
526,17	2822,10
526,37	3065,81
526,58	2965,46
526,79	3006,42
526,99	2899,92
527,20	3092,43
527,41	2932,69
527,62	3037,14
527,82	3209,17
528,03	2940,88
528,24	3217,36
528,44	3186,64
528,65	3053,52
528,86	3188,69
529,06	3219,41
529,27	3233,74
529,48	3190,74
529,68	3391,44
529,89	3385,29
530,10	3301,33
530,30	3305,42
530,51	3334,09
530,72	3518,41
530,92	3424,20
531,13	3436,49
531,34	3434,44
531,54	3631,05
531,75	3631,05
531,96	3784,65
532,16	3733,45
532,37	3827,65
532,57	3805,13
532,78	3739,59
532,99	3923,91
533,19	3782,60
533,40	3897,28
533,61	3938,24
533,81	4054,98
534,02	4024,26
534,23	4048,83
534,43	4120,51
534,64	4208,58
534,84	4196,29
535,05	4081,60
535,26	4167,62
535,46	4308,93
535,67	4440,00
535,88	4304,83
536,08	4382,65
536,29	4405,18
536,49	4691,90
536,70	5136,31
536,91	5558,19
537,11	5947,30
537,32	6518,68
537,53	6696,86
537,73	6907,80
537,94	7167,89
538,14	7339,92
538,35	7470,99
538,56	7774,09
538,76	7800,71
538,97	8130,44
539,17	8228,74
539,38	8624,00
539,59	8832,89
539,79	9101,17
540,00	9541,49
540,20	10022,76
540,41	11411,28
540,62	16295,69
540,82	45071,70
541,03	65535,00
541,23	65535,00
541,44	65535,00
541,64	65535,00
541,85	65535,00
542,06	65535,00
542,26	65535,00
542,47	65535,00
542,67	65535,00
542,88	65535,00
543,08	65535,00
543,29	65535,00
543,50	65535,00
543,70	65535,00
543,91	65535,00
544,11	65535,00
544,32	65535,00
544,52	65535,00
544,73	65535,00
544,94	65535,00
545,14	65535,00
545,35	65535,00
545,55	65535,00
545,76	65535,00
545,96	65535,00
546,17	65535,00
546,37	65535,00
546,58	65535,00
546,78	65535,00
546,99	65535,00
547,20	65535,00
547,40	65535,00
547,61	65535,00
547,81	65535,00
548,02	65535,00
548,22	65535,00
548,43	65535,00
548,63	65535,00
548,84	65535,00
549,04	65535,00
549,25	65535,00
549,45	65535,00
549,66	65535,00
549,86	65535,00
550,07	65535,00
550,27	65535,00
550,48	65535,00
550,69	65535,00
550,89	65535,00
551,10	65535,00
551,30	65535,00
551,51	65535,00
551,71	65535,00
551,92	65535,00
552,12	65535,00
552,33	65535,00
552,53	65535,00
552,74	65535,00
552,94	65535,00
553,15	65535,00
553,35	65535,00
553,56	65535,00
553,76	65535,00
553,97	65535,00
554,17	65535,00
554,38	65535,00
554,58	65535,00
554,79	65535,00
554,99	65535,00
555,19	65535,00
555,40	65535,00
555,60	65535,00
555,81	65535,00
556,01	65535,00
556,22	65535,00
556,42	65535,00
556,63	65535,00
556,83	65535,00
557,04	65535,00
557,24	65535,00
557,45	65535,00
557,65	65535,00
557,86	65535,00
558,06	65535,00
558,27	65535,00
558,47	65535,00
558,67	65535,00
558,88	65535,00
559,08	65535,00
559,29	65535,00
559,49	65535,00
559,70	65535,00
559,90	65535,00
560,11	65535,00
560,31	65535,00
560,52	65535,00
560,72	65535,00
560,92	65535,00
561,13	65535,00
561,33	65535,00
561,54	65535,00
561,74	65535,00
561,95	65535,00
562,15	65535,00
562,35	65535,00
562,56	65535,00
562,76	65535,00
562,97	65535,00
563,17	65535,00
563,38	65535,00
563,58	65535,00
563,78	65535,00
563,99	65535,00
564,19	65535,00
564,40	65535,00
564,60	65535,00
564,80	65535,00
565,01	65535,00
565,21	65535,00
565,42	65535,00
565,62	65535,00
565,83	65535,00
566,03	65535,00
566,23	65535,00
566,44	65535,00
566,64	65535,00
566,85	65535,00
567,05	65535,00
567,25	65535,00
567,46	65535,00
567,66	65535,00
567,86	65535,00
568,07	65535,00
568,27	65535,00
568,48	65535,00
568,68	65535,00
568,88	65535,00
569,09	65535,00
569,29	65535,00
569,50	65535,00
569,70	65535,00
569,90	65535,00
570,11	65535,00
570,31	65535,00
570,51	65535,00
570,72	65535,00
570,92	65535,00
571,13	65535,00
571,33	65535,00
571,53	65535,00
571,74	65535,00
571,94	65535,00
572,14	65535,00
572,35	65535,00
572,55	65535,00
572,75	65535,00
572,96	65535,00
573,16	65535,00
573,36	65535,00
573,57	65535,00
573,77	65535,00
573,97	65535,00
574,18	65535,00
574,38	65535,00
574,59	65535,00
574,79	65535,00
574,99	65535,00
575,20	65535,00
575,40	65535,00
575,60	65535,00
575,81	65535,00
576,01	65535,00
576,21	65535,00
576,42	65535,00
576,62	65535,00
576,82	65535,00
577,02	65535,00
577,23	65535,00
577,43	65535,00
577,63	65535,00
577,84	65535,00
578,04	65535,00
578,24	65535,00
578,45	65535,00
578,65	65535,00
578,85	65535,00
579,06	65535,00
579,26	65535,00
579,46	65535,00
579,67	65535,00
579,87	65535,00
580,07	65535,00
580,27	65535,00
580,48	65535,00
580,68	65535,00
580,88	65535,00
581,09	65535,00
581,29	65535,00
581,49	65535,00
581,69	65535,00
581,90	65535,00
582,10	65535,00
582,30	65535,00
582,51	65535,00
582,71	65535,00
582,91	65535,00
583,11	65535,00
583,32	65535,00
583,52	65535,00
583,72	65535,00
583,93	65535,00
584,13	65535,00
584,33	65535,00
584,53	65535,00
584,74	65535,00
584,94	65535,00
585,14	65535,00
585,34	65535,00
585,55	65535,00
585,75	65535,00
585,95	65535,00
586,15	65535,00
586,36	65535,00
586,56	65535,00
586,76	65535,00
586,96	65535,00
587,17	65535,00
587,37	65535,00
587,57	65535,00
587,77	65535,00
587,98	65535,00
588,18	65535,00
588,38	65535,00
588,58	65535,00
588,79	65535,00
588,99	65535,00
589,19	65535,00
589,39	65535,00
589,60	65535,00
589,80	65535,00
590,00	65535,00
590,20	65535,00
590,40	65535,00
590,61	65535,00
590,81	65535,00
591,01	65535,00
591,21	65535,00
591,42	65535,00
591,62	65535,00
591,82	65535,00
592,02	65535,00
592,22	65535,00
592,43	65535,00
592,63	65535,00
592,83	65535,00
593,03	65535,00
593,23	65535,00
593,44	65535,00
593,64	65535,00
593,84	65535,00
594,04	65535,00
594,24	65535,00
594,45	65535,00
594,65	65535,00
594,85	65535,00
595,05	65535,00
595,25	65535,00
595,46	65535,00
595,66	65535,00
595,86	65535,00
596,06	65535,00
596,26	65535,00
596,46	65535,00
596,67	65535,00
596,87	65535,00
597,07	65535,00
597,27	65535,00
597,47	65535,00
597,67	65535,00
597,88	65535,00
598,08	65535,00
598,28	65535,00
598,48	65535,00
598,68	65535,00
598,88	65535,00
599,09	65535,00
599,29	65535,00
599,49	65535,00
599,69	65535,00
599,89	65535,00
600,09	65535,00
600,30	65535,00
600,50	65535,00
600,70	65535,00
600,90	65535,00
601,10	65535,00
601,30	65535,00
601,50	65535,00
601,71	65535,00
601,91	65535,00
602,11	65535,00
602,31	65535,00
602,51	65535,00
602,71	65535,00
602,91	65535,00
603,11	65535,00
603,32	65535,00
603,52	65535,00
603,72	65535,00
603,92	65535,00
604,12	65535,00
604,32	65535,00
604,52	65535,00
604,72	65535,00
604,93	65535,00
605,13	65535,00
605,33	65535,00
605,53	65535,00
605,73	65535,00
605,93	65535,00
606,13	65535,00
606,33	65535,00
606,53	65535,00
606,74	65535,00
606,94	65535,00
607,14	65535,00
607,34	65535,00
607,54	65535,00
607,74	65535,00
607,94	65535,00
608,14	65535,00
608,34	65535,00
608,54	65535,00
608,74	65535,00
608,95	65535,00
609,15	65535,00
609,35	65535,00
609,55	65535,00
609,75	65535,00
609,95	65535,00
610,15	65535,00
610,35	65535,00
610,55	65535,00
610,75	65535,00
610,95	65535,00
611,15	65535,00
611,35	65535,00
611,55	65535,00
611,76	65535,00
611,96	65535,00
612,16	65535,00
612,36	65535,00
612,56	65535,00
612,76	65535,00
612,96	65535,00
613,16	65535,00
613,36	65535,00
613,56	65535,00
613,76	65535,00
613,96	65535,00
614,16	65535,00
614,36	65535,00
614,56	65535,00
614,76	65535,00
614,96	65535,00
615,16	65535,00
615,36	65535,00
615,56	65535,00
615,76	65535,00
615,97	65535,00
616,17	65535,00
616,37	65535,00
616,57	65535,00
616,77	65535,00
616,97	65535,00
617,17	65535,00
617,37	65535,00
617,57	65535,00
617,77	65535,00
617,97	65535,00
618,17	65535,00
618,37	65535,00
618,57	65535,00
618,77	65535,00
618,97	65535,00
619,17	65535,00
619,37	65535,00
619,57	65535,00
619,77	65535,00
619,97	65535,00
620,17	65535,00
620,37	65535,00
620,57	65535,00
620,77	65535,00
620,97	65535,00
621,17	65535,00
621,37	65535,00
621,57	65535,00
621,77	65535,00
621,97	65535,00
622,17	65535,00
622,37	65535,00
622,57	65535,00
622,77	45382,99
622,97	65535,00
623,17	1779,68
623,37	57816,21
623,57	1859,56
623,77	1769,44
623,97	1757,16
624,16	1742,82
624,36	1742,82
624,56	1673,19
624,76	1755,11
624,96	1691,62
625,16	1703,91
625,36	1761,25
625,56	1644,52
625,76	1712,10
625,96	1701,86
626,16	1683,43
626,36	1763,30
626,56	1814,50
626,76	1794,02
626,96	1667,05
627,16	1759,21
627,36	1701,86
627,56	1742,82
627,76	1646,57
627,96	1693,67
628,16	1839,08
628,35	1785,83
628,55	1679,33
628,75	1689,57
628,95	1730,53
629,15	1763,30
629,35	1578,98
629,55	1753,06
629,75	1679,33
629,95	1699,81
630,15	1728,49
630,35	1650,66
630,55	1665,00
630,75	1646,57
630,95	1777,64
631,14	1632,23
631,34	1669,09
631,54	1675,24
631,74	1665,00
631,94	1638,38
632,14	1658,85
632,34	1714,15
632,54	1634,28
632,74	1693,67
632,94	1603,56
633,14	1695,72
633,33	1660,90
633,53	1619,94
633,73	1759,21
633,93	1714,15
634,13	1634,28
634,33	1685,48
634,53	1656,81
634,73	1630,18
634,93	1578,98
635,12	1652,71
635,32	1730,53
635,52	1619,94
635,72	1603,56
635,92	1601,51
636,12	1748,97
636,32	1685,48
636,52	1716,20
636,71	1638,38
636,91	1652,71
637,11	1607,66
637,31	1695,72
637,51	1542,12
637,71	1800,16
637,91	1671,14
638,11	1685,48
638,30	1615,85
638,50	1578,98
638,70	1726,44
638,90	1699,81
639,10	1662,95
639,30	1667,05
639,50	1646,57
639,69	1646,57
639,89	1591,27
640,09	1621,99
640,29	1673,19
640,49	1638,38
640,69	1667,05
640,88	1687,53
641,08	1599,46
641,28	1691,62
641,48	1726,44
641,68	1593,32
641,88	1671,14
642,07	1550,31
642,27	1675,24
642,47	1621,99
642,67	1658,85
642,87	1673,19
643,07	1605,61
643,26	1621,99
643,46	1621,99
643,66	1644,52
643,86	1648,61
644,06	1695,72
644,26	1619,94
644,45	1615,85
644,65	1656,81
644,85	1578,98
645,05	1640,42
645,25	1597,42
645,44	1587,18
645,64	1603,56
645,84	1585,13
646,04	1601,51
646,24	1634,28
646,43	1748,97
646,63	1683,43
646,83	1578,98
647,03	1703,91
647,23	1605,61
647,42	1646,57
647,62	1673,19
647,82	1634,28
648,02	1587,18
648,22	1703,91
648,41	1607,66
648,61	1630,18
648,81	1570,79
649,01	1574,89
649,20	1701,86
649,40	1585,13
649,60	1808,36
649,80	1619,94
650,00	1613,80
650,19	1607,66
650,39	1613,80
650,59	1697,77
650,79	1609,70
650,98	1583,08
651,18	1558,50
651,38	1617,90
651,58	1613,80
651,77	1527,78
651,97	1705,96
652,17	1681,38
652,37	1572,84
652,56	1501,16
652,76	1609,70
652,96	1701,86
653,16	1542,12
653,35	1585,13
653,55	1564,65
653,75	1566,70
653,95	1650,66
654,14	1585,13
654,34	1654,76
654,54	1626,09
654,74	1589,22
654,93	1636,33
655,13	1607,66
655,33	1499,11
655,52	1574,89
655,72	1621,99
655,92	1505,26
656,12	1581,03
656,31	1568,74
656,51	1585,13
656,71	1523,69
656,91	1558,50
657,10	1521,64
657,30	1550,31
657,50	1619,94
657,69	1648,61
657,89	1609,70
658,09	1640,42
658,29	1699,81
658,48	1570,79
658,68	1570,79
658,88	1703,91
659,07	1538,02
659,27	1658,85
659,47	1546,22
659,66	1673,19
659,86	1570,79
660,06	1611,75
660,26	1572,84
660,45	1638,38
660,65	1689,57
660,85	1576,94
661,04	1544,17
661,24	1634,28
661,44	1478,63
661,63	1464,30
661,83	1605,61
662,03	1513,45
662,22	1548,26
662,42	1656,81
662,62	1621,99
662,81	1581,03
663,01	1630,18
663,21	1611,75
663,40	1583,08
663,60	1660,90
663,80	1568,74
663,99	1695,72
664,19	1587,18
664,39	1603,56
664,58	1603,56
664,78	1581,03
664,98	1488,87
665,17	1632,23
665,37	1581,03
665,57	1675,24
665,76	1578,98
665,96	1603,56
666,16	1515,50
666,35	1636,33
666,55	1654,76
666,74	1636,33
666,94	1722,34
667,14	1540,07
667,33	1615,85
667,53	1593,32
667,73	1583,08
667,92	1595,37
668,12	1613,80
668,32	1652,71
668,51	1589,22
668,71	1495,02
668,90	1552,36
669,10	1576,94
669,30	1578,98
669,49	1572,84
669,69	1642,47
669,89	1529,83
670,08	1560,55
670,28	1775,59
670,47	1511,40
670,67	1636,33
670,87	1554,41
671,06	1583,08
671,26	1621,99
671,45	1593,32
671,65	1630,18
671,85	1595,37
672,04	1583,08
672,24	1535,98
672,43	1531,88
672,63	1581,03
672,83	1568,74
673,02	1515,50
673,22	1472,49
673,41	1525,74
673,61	1568,74
673,81	1560,55
674,00	1601,51
674,20	1542,12
674,39	1527,78
674,59	1501,16
674,78	1507,30
674,98	1722,34
675,18	1611,75
675,37	1542,12
675,57	1505,26
675,76	1611,75
675,96	1624,04
676,15	1560,55
676,35	1570,79
676,55	1527,78
676,74	1609,70
676,94	1560,55
677,13	1531,88
677,33	1546,22
677,52	1593,32
677,72	1523,69
677,91	1456,11
678,11	1476,59
678,31	1546,22
678,50	1662,95
678,70	1533,93
678,89	1583,08
679,09	1480,68
679,28	1488,87
679,48	1562,60
679,67	1601,51
679,87	1576,94
680,06	1740,77
680,26	1601,51
680,46	1605,61
680,65	1578,98
680,85	1570,79
681,04	1558,50
681,24	1492,97
681,43	1540,07
681,63	1609,70
681,82	1593,32
682,02	1533,93
682,21	1535,98
682,41	1517,54
682,60	1548,26
682,80	1566,70
682,99	1585,13
683,19	1609,70
683,38	1556,46
683,58	1568,74
683,77	1564,65
683,97	1542,12
684,16	1693,67
684,36	1521,64
684,55	1576,94
684,75	1603,56
684,94	1599,46
685,14	1578,98
685,33	1490,92
685,53	1591,27
685,72	1542,12
685,92	1550,31
686,11	1562,60
686,31	1589,22
686,50	1613,80
686,70	1560,55
686,89	1542,12
687,09	1581,03
687,28	1562,60
687,48	1480,68
687,67	1552,36
687,87	1597,42
688,06	1550,31
688,26	1609,70
688,45	1538,02
688,65	1556,46
688,84	1613,80
689,03	1605,61
689,23	1501,16
689,42	1646,57
689,62	1636,33
689,81	1654,76
690,01	1601,51
690,20	1495,02
690,40	1581,03
690,59	1638,38
690,79	1566,70
690,98	1560,55
691,17	1478,63
691,37	1609,70
691,56	1599,46
691,76	1654,76
691,95	1581,03
692,15	1499,11
692,34	1542,12
692,54	1482,73
692,73	1552,36
692,92	1652,71
693,12	1544,17
693,31	1562,60
693,51	1648,61
693,70	1564,65
693,90	1472,49
694,09	1566,70
694,28	1540,07
694,48	1597,42
694,67	1566,70
694,87	1595,37
695,06	1621,99
695,26	1574,89
695,45	1531,88
695,64	1495,02
695,84	1519,59
696,03	1529,83
696,23	1572,84
696,42	1460,20
696,61	1589,22
696,81	1495,02
697,00	1464,30
697,20	1540,07
697,39	1564,65
697,58	1482,73
697,78	1646,57
697,97	1581,03
698,17	1601,51
698,36	1519,59
698,55	1499,11
698,75	1572,84
698,94	1546,22
699,14	1503,21
699,33	1548,26
699,52	1482,73
699,72	1613,80
699,91	1501,16
700,10	1564,65
700,30	1564,65
700,49	1499,11
700,69	1554,41
700,88	1521,64
701,07	1546,22
701,27	1583,08
701,46	1574,89
701,65	1570,79
701,85	1474,54
702,04	1554,41
702,23	1595,37
702,43	1488,87
702,62	1501,16
702,82	1529,83
703,01	1699,81
703,20	1562,60
703,40	1585,13
703,59	1480,68
703,78	1615,85
703,98	1566,70
704,17	1531,88
704,36	1535,98
704,56	1617,90
704,75	1425,39
704,94	1474,54
705,14	1609,70
705,33	1507,30
705,52	1533,93
705,72	1548,26
705,91	1525,74
706,10	1533,93
706,30	1486,83
706,49	1589,22
706,68	1556,46
706,88	1511,40
707,07	1521,64
707,26	1452,01
707,46	1562,60
707,65	1591,27
707,84	1523,69
708,04	1509,35
708,23	1587,18
708,42	1546,22
708,62	1472,49
708,81	1439,72
709,00	1634,28
709,19	1447,91
709,39	1558,50
709,58	1619,94
709,77	1503,21
709,97	1482,73
710,16	1581,03
710,35	1523,69
710,55	1581,03
710,74	1572,84
710,93	1501,16
711,12	1558,50
711,32	1531,88
711,51	1615,85
711,70	1413,10
711,90	1523,69
712,09	1544,17
712,28	1554,41
712,47	1511,40
712,67	1445,87
712,86	1566,70
713,05	1511,40
713,24	1511,40
713,44	1515,50
713,63	1609,70
713,82	1535,98
714,02	1562,60
714,21	1597,42
714,40	1529,83
714,59	1578,98
714,79	1439,72
714,98	1550,31
715,17	1673,19
715,36	1525,74
715,56	1644,52
715,75	1609,70
715,94	1529,83
716,13	1521,64
716,33	1556,46
716,52	1542,12
716,71	1578,98
716,90	1599,46
717,10	1488,87
717,29	1513,45
717,48	1583,08
717,67	1562,60
717,87	1501,16
718,06	1587,18
718,25	1656,81
718,44	1566,70
718,63	1560,55
718,83	1542,12
719,02	1507,30
719,21	1497,07
719,40	1439,72
719,60	1472,49
719,79	1517,54
719,98	1581,03
720,17	1552,36
720,36	1552,36
720,56	1572,84
720,75	1427,43
720,94	1587,18
721,13	1564,65
721,33	1562,60
721,52	1523,69
721,71	1507,30
721,90	1519,59
722,09	1476,59
722,29	1486,83
722,48	1486,83
722,67	1517,54
722,86	1615,85
723,05	1548,26
723,24	1613,80
723,44	1515,50
723,63	1529,83
723,82	1558,50
724,01	1415,15
724,20	1490,92
724,40	1482,73
724,59	1513,45
724,78	1445,87
724,97	1482,73
725,16	1599,46
725,35	1546,22
725,55	1495,02
725,74	1521,64
725,93	1656,81
726,12	1574,89
726,31	1632,23
726,51	1587,18
726,70	1464,30
726,89	1513,45
727,08	1572,84
727,27	1533,93
727,46	1523,69
727,65	1505,26
727,85	1570,79
728,04	1558,50
728,23	1431,53
728,42	1402,86
728,61	1474,54
728,80	1570,79
729,00	1552,36
729,19	1574,89
729,38	1564,65
729,57	1480,68
729,76	1513,45
729,95	1591,27
730,14	1562,60
730,33	1558,50
730,53	1517,54
730,72	1497,07
730,91	1540,07
731,10	1568,74
731,29	1658,85
731,48	1626,09
731,67	1421,29
731,86	1558,50
732,06	1533,93
732,25	1515,50
732,44	1535,98
732,63	1464,30
732,82	1525,74
733,01	1589,22
733,20	1507,30
733,39	1470,44
733,59	1515,50
733,78	1505,26
733,97	1552,36
734,16	1611,75
734,35	1550,31
734,54	1538,02
734,73	1556,46
734,92	1562,60
735,11	1468,39
735,30	1578,98
735,49	1542,12
735,69	1638,38
735,88	1503,21
736,07	1527,78
736,26	1472,49
736,45	1566,70
736,64	1468,39
736,83	1560,55
737,02	1611,75
737,21	1474,54
737,40	1454,06
737,59	1628,14
737,78	1445,87
737,98	1427,43
738,17	1482,73
738,36	1650,66
738,55	1466,35
738,74	1497,07
738,93	1464,30
739,12	1386,47
739,31	1501,16
739,50	1478,63
739,69	1556,46
739,88	1564,65
740,07	1548,26
740,26	1490,92
740,45	1503,21
740,64	1488,87
740,83	1488,87
741,02	1517,54
741,22	1505,26
741,41	1550,31
741,60	1583,08
741,79	1521,64
741,98	1513,45
742,17	1523,69
742,36	1593,32
742,55	1472,49
742,74	1687,53
742,93	1574,89
743,12	1460,20
743,31	1470,44
743,50	1550,31
743,69	1509,35
743,88	1581,03
744,07	1503,21
744,26	1624,04
744,45	1449,96
744,64	1591,27
744,83	1583,08
745,02	1466,35
745,21	1456,11
745,40	1472,49
745,59	1572,84
745,78	1523,69
745,97	1548,26
746,16	1593,32
746,35	1542,12
746,54	1568,74
746,73	1478,63
746,92	1466,35
747,11	1431,53
747,30	1509,35
747,49	1441,77
747,68	1589,22
747,87	1468,39
748,06	1499,11
748,25	1572,84
748,44	1546,22
748,63	1554,41
748,82	1509,35
749,01	1495,02
749,20	1443,82
749,39	1443,82
749,58	1558,50
749,77	1538,02
749,96	1445,87
750,15	1507,30
750,34	1474,54
750,53	1624,04
750,72	1554,41
750,91	1476,59
751,10	1529,83
751,29	1525,74
751,48	1466,35
751,67	1499,11
751,86	1556,46
752,04	1521,64
752,23	1546,22
752,42	1509,35
752,61	1505,26
752,80	1529,83
752,99	1568,74
753,18	1517,54
753,37	1505,26
753,56	1460,20
753,75	1554,41
753,94	1478,63
754,13	1585,13
754,32	1462,25
754,51	1468,39
754,70	1552,36
754,89	1476,59
755,08	1495,02
755,27	1497,07
755,45	1564,65
755,64	1544,17
755,83	1550,31
756,02	1523,69
756,21	1517,54
756,40	1490,92
756,59	1474,54
756,78	1480,68
756,97	1511,40
757,16	1538,02
757,35	1611,75
757,54	1476,59
757,72	1570,79
757,91	1507,30
758,10	1464,30
758,29	1456,11
758,48	1556,46
758,67	1429,48
758,86	1441,77
759,05	1515,50
759,24	1503,21
759,43	1511,40
759,61	1433,58
759,80	1488,87
759,99	1495,02
760,18	1495,02
760,37	1464,30
760,56	1507,30
760,75	1662,95
760,94	1480,68
761,13	1484,78
761,31	1548,26
761,50	1464,30
761,69	1454,06
761,88	1495,02
762,07	1417,19
762,26	1513,45
762,45	1531,88
762,64	1529,83
762,82	1515,50
763,01	1564,65
763,20	1531,88
763,39	1497,07
763,58	1515,50
763,77	1409,00
763,96	1398,76
764,14	1447,91
764,33	1478,63
764,52	1527,78
764,71	1564,65
764,90	1474,54
765,09	1531,88
765,27	1517,54
765,46	1478,63
765,65	1486,83
765,84	1488,87
766,03	1550,31
766,22	1439,72
766,41	1525,74
766,59	1445,87
766,78	1630,18
766,97	1521,64
767,16	1583,08
767,35	1437,67
767,54	1599,46
767,72	1599,46
767,91	1515,50
768,10	1396,71
768,29	1456,11
768,48	1560,55
768,66	1460,20
768,85	1538,02
769,04	1501,16
769,23	1431,53
769,42	1572,84
769,61	1497,07
769,79	1458,15
769,98	1556,46
770,17	1468,39
770,36	1597,42
770,55	1488,87
770,73	1603,56
770,92	1492,97
771,11	1540,07
771,30	1454,06
771,49	1462,25
771,67	1595,37
771,86	1499,11
772,05	1466,35
772,24	1488,87
772,42	1454,06
772,61	1566,70
772,80	1484,78
772,99	1439,72
773,18	1544,17
773,36	1445,87
773,55	1503,21
773,74	1531,88
773,93	1470,44
774,11	1417,19
774,30	1558,50
774,49	1460,20
774,68	1599,46
774,87	1503,21
775,05	1431,53
775,24	1384,43
775,43	1535,98
775,62	1544,17
775,80	1550,31
775,99	1587,18
776,18	1634,28
776,37	1466,35
776,55	1570,79
776,74	1464,30
776,93	1452,01
777,12	1501,16
777,30	1531,88
777,49	1486,83
777,68	1492,97
777,87	1501,16
778,05	1480,68
778,24	1486,83
778,43	1474,54
778,62	1388,52
778,80	1488,87
778,99	1542,12
779,18	1550,31
779,36	1611,75
779,55	1484,78
779,74	1562,60
779,93	1601,51
780,11	1578,98
780,30	1550,31
780,49	1552,36
780,68	1486,83
780,86	1652,71
781,05	1497,07
781,24	1519,59
781,42	1548,26
781,61	1486,83
781,80	1482,73
781,98	1542,12
782,17	1615,85
782,36	1511,40
782,55	1466,35
782,73	1454,06
782,92	1544,17
783,11	1464,30
783,29	1540,07
783,48	1544,17
783,67	1544,17
783,85	1517,54
784,04	1550,31
784,23	1409,00
784,42	1499,11
784,60	1478,63
784,79	1601,51
784,98	1478,63
785,16	1511,40
785,35	1468,39
785,54	1513,45
785,72	1632,23
785,91	1570,79
786,10	1398,76
786,28	1560,55
786,47	1544,17
786,66	1445,87
786,84	1585,13
787,03	1529,83
787,22	1531,88
787,40	1394,67
787,59	1589,22
787,78	1568,74
787,96	1535,98
788,15	1509,35
788,34	1574,89
788,52	1523,69
788,71	1509,35
788,89	1525,74
789,08	1546,22
789,27	1589,22
789,45	1474,54
789,64	1431,53
789,83	1497,07
790,01	1464,30
790,20	1540,07
790,39	1441,77
790,57	1478,63
790,76	1533,93
790,95	1488,87
791,13	1533,93
791,32	1519,59
791,50	1593,32
791,69	1570,79
791,88	1548,26
792,06	1499,11
792,25	1556,46
792,43	1433,58
792,62	1556,46
792,81	1441,77
792,99	1492,97
793,18	1505,26
793,37	1486,83
793,55	1427,43
793,74	1566,70
793,92	1538,02
794,11	1527,78
794,30	1462,25
794,48	1525,74
794,67	1511,40
794,85	1501,16
795,04	1445,87
795,23	1533,93
795,41	1505,26
795,60	1505,26
795,78	1566,70
795,97	1499,11
796,15	1601,51
796,34	1513,45
796,53	1452,01
796,71	1533,93
796,90	1593,32
797,08	1411,05
797,27	1554,41
797,46	1527,78
797,64	1486,83
797,83	1593,32
798,01	1509,35
798,20	1513,45
798,38	1621,99
798,57	1366,00
798,76	1423,34
798,94	1462,25
799,13	1492,97
799,31	1589,22
799,50	1470,44
799,68	1513,45
799,87	1454,06
800,05	1521,64
800,24	1413,10
800,43	1423,34
800,61	1566,70
800,80	1556,46
800,98	1515,50
801,17	1474,54
801,35	1509,35
801,54	1550,31
801,72	1474,54
801,91	1470,44
802,09	1439,72
802,28	1417,19
802,46	1488,87
802,65	1513,45
802,84	1597,42
803,02	1507,30
803,21	1478,63
803,39	1431,53
803,58	1523,69
803,76	1531,88
803,95	1523,69
804,13	1386,47
804,32	1495,02
804,50	1566,70
804,69	1509,35
804,87	1574,89
805,06	1605,61
805,24	1572,84
805,43	1456,11
805,61	1505,26
805,80	1558,50
805,98	1544,17
806,17	1495,02
806,35	1464,30
806,54	1523,69
806,72	1476,59
806,91	1460,20
807,09	1484,78
807,28	1480,68
807,46	1519,59
807,65	1562,60
807,83	1460,20
808,02	1488,87
808,20	1513,45
808,39	1480,68
808,57	1511,40
808,76	1568,74
808,94	1583,08
809,13	1392,62
809,31	1427,43
809,49	1519,59
809,68	1456,11
809,86	1529,83
810,05	1507,30
810,23	1484,78
810,42	1499,11
810,60	1452,01
810,79	1447,91
810,97	1464,30
811,16	1517,54
811,34	1501,16
811,53	1456,11
811,71	1445,87
811,89	1646,57
812,08	1468,39
812,26	1490,92
812,45	1501,16
812,63	1523,69
812,82	1509,35
813,00	1347,56
813,19	1529,83
813,37	1564,65
813,55	1460,20
813,74	1417,19
813,92	1470,44
814,11	1578,98
814,29	1413,10
814,48	1605,61
814,66	1497,07
814,84	1505,26
815,03	1454,06
815,21	1519,59
815,40	1525,74
815,58	1472,49
815,77	1454,06
815,95	1560,55
816,13	1413,10
816,32	1578,98
816,50	1492,97
816,69	1449,96
816,87	1499,11
817,05	1468,39
817,24	1501,16
817,42	1464,30
817,61	1521,64
817,79	1544,17
817,97	1488,87
818,16	1523,69
818,34	1589,22
818,53	1441,77
818,71	1568,74
818,89	1470,44
819,08	1472,49
819,26	1490,92
819,45	1509,35
819,63	1529,83
819,81	1454,06
820,00	1613,80
820,18	1447,91
820,36	1472,49
820,55	1492,97
820,73	1378,28
820,92	1488,87
821,10	1431,53
821,28	1419,24
821,47	1583,08
821,65	1400,81
821,83	1646,57
822,02	1454,06
822,20	1474,54
822,39	1474,54
822,57	1396,71
822,75	1521,64
822,94	1404,91
823,12	1419,24
823,30	1404,91
823,49	1550,31
823,67	1486,83
823,85	1466,35
824,04	1411,05
824,22	1484,78
824,40	1599,46
824,59	1542,12
824,77	1533,93
824,95	1509,35
825,14	1550,31
825,32	1556,46
825,50	1429,48
825,69	1470,44
825,87	1634,28
826,05	1499,11
826,24	1468,39
826,42	1607,66
826,60	1560,55
826,79	1466,35
826,97	1460,20
827,15	1482,73
827,34	1435,63
827,52	1503,21
827,70	1400,81
827,89	1486,83
828,07	1417,19
828,25	1552,36
828,44	1544,17
828,62	1435,63
828,80	1574,89
828,98	1519,59
829,17	1394,67
829,35	1505,26
829,53	1464,30
829,72	1554,41
829,90	1492,97
830,08	1474,54
830,27	1560,55
830,45	1492,97
830,63	1519,59
830,81	1437,67
831,00	1533,93
831,18	1370,09
831,36	1527,78
831,55	1411,05
831,73	1425,39
831,91	1433,58
832,09	1578,98
832,28	1540,07
832,46	1476,59
832,64	1509,35
832,82	1447,91
833,01	1538,02
833,19	1445,87
833,37	1464,30
833,55	1464,30
833,74	1560,55
833,92	1384,43
834,10	1452,01
834,29	1484,78
834,47	1427,43
834,65	1523,69
834,83	1363,95
835,02	1478,63
835,20	1425,39
835,38	1521,64
835,56	1505,26
835,75	1447,91
835,93	1495,02
836,11	1445,87
836,29	1439,72
836,47	1499,11
836,66	1474,54
836,84	1589,22
837,02	1515,50
837,20	1495,02
837,39	1574,89
837,57	1499,11
837,75	1546,22
837,93	1521,64
838,12	1425,39
838,30	1482,73
838,48	1472,49
838,66	1583,08
838,84	1427,43
839,03	1572,84
839,21	1447,91
839,39	1402,86
839,57	1558,50
839,75	1486,83
839,94	1406,95
840,12	1519,59
840,30	1390,57
840,48	1548,26
840,66	1462,25
840,85	1470,44
841,03	1445,87
841,21	1564,65
841,39	1581,03
841,57	1478,63
841,76	1578,98
841,94	1538,02
842,12	1495,02
842,30	1456,11
842,48	1523,69
842,67	1503,21
842,85	1556,46
843,03	1544,17
843,21	1478,63
843,39	1492,97
843,57	1445,87
843,76	1517,54
843,94	1470,44
844,12	1507,30
844,30	1378,28
844,48	1478,63
844,66	1437,67
844,85	1484,78
845,03	1406,95
845,21	1476,59
845,39	1517,54
845,57	1458,15
845,75	1517,54
845,94	1499,11
846,12	1452,01
846,30	1583,08
846,48	1419,24
846,66	1492,97
846,84	1413,10
847,02	1449,96
847,21	1388,52
847,39	1507,30
847,57	1447,91
847,75	1447,91
847,93	1445,87
848,11	1421,29
848,29	1415,15
848,48	1458,15
848,66	1484,78
848,84	1568,74
849,02	1505,26
849,20	1433,58
849,38	1386,47
849,56	1470,44
849,74	1503,21
849,93	1603,56
850,11	1460,20
850,29	1501,16
850,47	1476,59
850,65	1458,15
850,83	1415,15
851,01	1464,30
851,19	1488,87
851,37	1417,19
851,56	1478,63
851,74	1533,93
851,92	1429,48
852,10	1402,86
852,28	1525,74
852,46	1474,54
852,64	1521,64
852,82	1507,30
853,00	1484,78
853,18	1419,24
853,37	1462,25
853,55	1431,53
853,73	1486,83
853,91	1427,43
854,09	1499,11
854,27	1474,54
854,45	1460,20
854,63	1466,35
854,81	1458,15
854,99	1458,15
855,17	1482,73
855,35	1378,28
855,53	1499,11
855,72	1482,73
855,90	1511,40
856,08	1513,45
856,26	1478,63
856,44	1470,44
856,62	1396,71
856,80	1437,67
856,98	1439,72
857,16	1480,68
857,34	1464,30
857,52	1507,30
857,70	1554,41
857,88	1501,16
858,06	1482,73
858,24	1437,67
858,42	1460,20
858,60	1499,11
858,78	1456,11
858,96	1456,11
859,15	1441,77
859,33	1468,39
859,51	1513,45
859,69	1404,91
859,87	1427,43
860,05	1476,59
860,23	1449,96
860,41	1482,73
860,59	1427,43
860,77	1542,12
860,95	1449,96
861,13	1523,69
861,31	1433,58
861,49	1449,96
861,67	1521,64
861,85	1476,59
862,03	1513,45
862,21	1421,29
862,39	1392,62
862,57	1558,50
862,75	1505,26
862,93	1464,30
863,11	1578,98
863,29	1366,00
863,47	1468,39
863,65	1484,78
863,83	1441,77
864,01	1482,73
864,19	1456,11
864,37	1396,71
864,55	1503,21
864,73	1478,63
864,91	1470,44
865,09	1484,78
865,27	1486,83
865,45	1472,49
865,63	1468,39
865,81	1452,01
865,99	1415,15
866,17	1490,92
866,35	1511,40
866,53	1531,88
866,71	1466,35
866,89	1505,26
867,07	1515,50
867,24	1495,02
867,42	1480,68
867,60	1546,22
867,78	1505,26
867,96	1482,73
868,14	1470,44
868,32	1611,75
868,50	1589,22
868,68	1492,97
868,86	1456,11
869,04	1476,59
869,22	1421,29
869,40	1417,19
869,58	1456,11
869,76	1452,01
869,94	1372,14
870,12	1443,82
870,30	1488,87
870,48	1517,54
870,66	1519,59
870,83	1472,49
871,01	1445,87
871,19	1486,83
871,37	1458,15
871,55	1386,47
871,73	1466,35
871,91	1509,35
872,09	1501,16
872,27	1484,78
872,45	1490,92
872,63	1372,14
872,81	1435,63
872,98	1478,63
873,16	1488,87
873,34	1521,64
873,52	1472,49
873,70	1378,28
873,88	1544,17
874,06	1462,25
874,24	1511,40
874,42	1372,14
874,60	1363,95
874,78	1419,24
874,95	1525,74
875,13	1441,77
875,31	1443,82
875,49	1441,77
875,67	1445,87
875,85	1345,52
876,03	1409,00
876,21	1529,83
876,39	1402,86
876,56	1509,35
876,74	1388,52
876,92	1437,67
877,10	1568,74
877,28	1470,44
877,46	1390,57
877,64	1499,11
877,82	1435,63
877,99	1413,10
878,17	1458,15
878,35	1419,24
878,53	1460,20
878,71	1472,49
878,89	1517,54
879,07	1488,87
879,24	1499,11
879,42	1402,86
879,60	1449,96
879,78	1535,98
879,96	1427,43
880,14	1574,89
880,32	1462,25
880,49	1429,48
880,67	1486,83
880,85	1552,36
881,03	1394,67
881,21	1486,83
881,39	1601,51
881,56	1406,95
881,74	1519,59
881,92	1413,10
882,10	1497,07
882,28	1482,73
882,46	1413,10
882,63	1499,11
882,81	1427,43
882,99	1452,01
883,17	1521,64
883,35	1495,02
883,52	1540,07
883,70	1470,44
883,88	1419,24
884,06	1478,63
884,24	1484,78
884,42	1499,11
884,59	1484,78
884,77	1538,02
884,95	1513,45
885,13	1501,16
885,31	1466,35
885,48	1482,73
885,66	1517,54
885,84	1509,35
886,02	1376,24
886,20	1482,73
886,37	1492,97
886,55	1550,31
886,73	1437,67
886,91	1501,16
887,08	1413,10
887,26	1470,44
887,44	1413,10
887,62	1447,91
887,80	1509,35
887,97	1464,30
888,15	1460,20
888,33	1509,35
888,51	1474,54
888,68	1499,11
888,86	1521,64
889,04	1452,01
889,22	1546,22
889,40	1394,67
889,57	1474,54
889,75	1546,22
889,93	1468,39
890,11	1542,12
890,28	1531,88
890,46	1456,11
890,64	1437,67
890,82	1535,98
890,99	1531,88
891,17	1503,21
891,35	1419,24
891,53	1452,01
891,70	1409,00
891,88	1513,45
892,06	1374,19
892,24	1392,62
892,41	1484,78
892,59	1476,59
892,77	1480,68
892,94	1447,91
893,12	1511,40
893,30	1449,96
893,48	1525,74
893,65	1503,21
893,83	1400,81
894,01	1445,87
894,19	1460,20
894,36	1544,17
894,54	1421,29
894,72	1492,97
894,89	1394,67
895,07	1419,24
895,25	1490,92
895,43	1413,10
895,60	1529,83
895,78	1572,84
895,96	1439,72
896,13	1517,54
896,31	1511,40
896,49	1535,98
896,66	1472,49
896,84	1490,92
897,02	1486,83
897,20	1503,21
897,37	1484,78
897,55	1445,87
897,73	1527,78
897,90	1456,11
898,08	1523,69
898,26	1484,78
898,43	1433,58
898,61	1460,20
898,79	1464,30
898,96	1386,47
899,14	1454,06
899,32	1507,30
899,49	1437,67
899,67	1429,48
899,85	1511,40
900,02	1570,79
900,20	1439,72
900,38	1495,02
900,55	1607,66
900,73	1605,61
900,91	1333,23
901,08	1503,21
901,26	1435,63
901,44	1484,78
901,61	1552,36
901,79	1417,19
901,97	1433,58
902,14	1456,11
902,32	1490,92
902,50	1417,19
902,67	1421,29
902,85	1462,25
903,02	1468,39
903,20	1470,44
903,38	1409,00
903,55	1439,72
903,73	1501,16
903,91	1501,16
904,08	1578,98
904,26	1421,29
904,44	1535,98
904,61	1404,91
904,79	1511,40
904,96	1529,83
905,14	1501,16
905,32	1445,87
905,49	1523,69
905,67	1411,05
905,84	1490,92
906,02	1470,44
906,20	1486,83
906,37	1517,54
906,55	1476,59
906,73	1443,82
906,90	1454,06
907,08	1515,50
907,25	1486,83
907,43	1497,07
907,61	1509,35
907,78	1478,63
907,96	1400,81
908,13	1511,40
908,31	1535,98
908,48	1464,30
908,66	1425,39
908,84	1466,35
909,01	1560,55
909,19	1535,98
909,36	1398,76
909,54	1488,87
909,72	1466,35
909,89	1380,33
910,07	1404,91
910,24	1531,88
910,42	1509,35
910,59	1466,35
910,77	1492,97
910,95	1384,43
911,12	1497,07
911,30	1402,86
911,47	1370,09
911,65	1525,74
911,82	1476,59
912,00	1482,73
912,17	1447,91
912,35	1484,78
912,53	1519,59
912,70	1591,27
912,88	1482,73
913,05	1476,59
913,23	1417,19
913,40	1531,88
913,58	1466,35
913,75	1394,67
913,93	1329,13
914,10	1411,05
914,28	1435,63
914,46	1419,24
914,63	1380,33
914,81	1507,30
914,98	1460,20
915,16	1554,41
915,33	1480,68
915,51	1535,98
915,68	1564,65
915,86	1527,78
916,03	1359,85
916,21	1441,77
916,38	1490,92
916,56	1480,68
916,73	1578,98
916,91	1458,15
917,08	1462,25
917,26	1509,35
917,43	1490,92
917,61	1406,95
917,78	1507,30
917,96	1349,61
918,13	1449,96
918,31	1456,11
918,48	1433,58
918,66	1368,04
918,83	1486,83
919,01	1425,39
919,18	1413,10
919,36	1402,86
919,53	1595,37
919,71	1533,93
919,88	1486,83
920,06	1566,70
920,23	1400,81
920,41	1417,19
920,58	1480,68
920,76	1361,90
920,93	1501,16
921,11	1478,63
921,28	1413,10
921,45	1478,63
921,63	1511,40
921,80	1533,93
921,98	1495,02
922,15	1394,67
922,33	1372,14
922,50	1478,63
922,68	1497,07
922,85	1527,78
923,03	1478,63
923,20	1523,69
923,38	1486,83
923,55	1492,97
923,72	1413,10
923,90	1617,90
924,07	1441,77
924,25	1525,74
924,42	1548,26
924,60	1429,48
924,77	1406,95
924,95	1548,26
925,12	1478,63
925,29	1572,84
925,47	1449,96
925,64	1380,33
925,82	1429,48
925,99	1406,95
926,17	1597,42
926,34	1437,67
926,51	1529,83
926,69	1488,87
926,86	1511,40
927,04	1370,09
927,21	1425,39
927,38	1392,62
927,56	1449,96
927,73	1552,36
927,91	1413,10
928,08	1578,98
928,25	1478,63
928,43	1476,59
928,60	1472,49
928,78	1484,78
928,95	1478,63
929,12	1572,84
929,30	1507,30
929,47	1523,69
929,65	1476,59
929,82	1452,01
929,99	1431,53
930,17	1363,95
930,34	1501,16
930,52	1382,38
930,69	1476,59
930,86	1462,25
931,04	1452,01
931,21	1357,80
931,38	1499,11
931,56	1447,91
931,73	1533,93
931,91	1490,92
932,08	1462,25
932,25	1554,41
932,43	1474,54
932,60	1470,44
932,77	1454,06
932,95	1400,81
933,12	1503,21
933,29	1464,30
933,47	1554,41
933,64	1400,81
933,82	1472,49
933,99	1456,11
934,16	1402,86
934,34	1542,12
934,51	1458,15
934,68	1548,26
934,86	1515,50
935,03	1374,19
935,20	1370,09
935,38	1390,57
935,55	1447,91
935,72	1499,11
935,90	1499,11
936,07	1552,36
936,24	1415,15
936,42	1447,91
936,59	1464,30
936,76	1570,79
936,94	1409,00
937,11	1480,68
937,28	1452,01
937,46	1445,87
937,63	1449,96
937,80	1480,68
937,97	1499,11
938,15	1443,82
938,32	1480,68
938,49	1492,97
938,67	1404,91
938,84	1552,36
939,01	1484,78
939,19	1517,54
939,36	1466,35
939,53	1482,73
939,70	1507,30
939,88	1411,05
940,05	1509,35
940,22	1431,53
940,40	1480,68
940,57	1501,16
940,74	1443,82
940,92	1441,77
941,09	1478,63
941,26	1339,37
941,43	1449,96
941,61	1478,63
941,78	1499,11
941,95	1466,35
942,12	1505,26
942,30	1499,11
942,47	1519,59
942,64	1456,11
942,82	1583,08
942,99	1550,31
943,16	1413,10
943,33	1458,15
943,51	1464,30
943,68	1480,68
943,85	1464,30
944,02	1490,92
944,20	1480,68
944,37	1425,39
944,54	1503,21
944,71	1466,35
944,89	1435,63
945,06	1413,10
945,23	1411,05
945,40	1525,74
945,58	1478,63
945,75	1380,33
945,92	1581,03
946,09	1462,25
946,27	1490,92
946,44	1447,91
946,61	1554,41
946,78	1470,44
946,95	1454,06
947,13	1501,16
947,30	1476,59
947,47	1480,68
947,64	1404,91
947,82	1411,05
947,99	1435,63
948,16	1523,69
948,33	1492,97
948,50	1454,06
948,68	1482,73
948,85	1503,21
949,02	1468,39
949,19	1429,48
949,36	1480,68
949,54	1400,81
949,71	1492,97
949,88	1503,21
950,05	1492,97
950,22	1503,21
950,40	1523,69
950,57	1445,87
950,74	1529,83
950,91	1482,73
951,08	1380,33
951,26	1462,25
951,43	1445,87
951,60	1486,83
951,77	1572,84
951,94	1495,02
952,11	1521,64
952,29	1597,42
952,46	1501,16
952,63	1513,45
952,80	1466,35
952,97	1470,44
953,15	1497,07
953,32	1492,97
953,49	1425,39
953,66	1501,16
953,83	1425,39
954,00	1443,82
954,17	1472,49
954,35	1576,94
954,52	1392,62
954,69	1538,02
954,86	1529,83
955,03	1507,30
955,20	1466,35
955,38	1492,97
955,55	1456,11
955,72	1533,93
955,89	1435,63
956,06	1486,83
956,23	1441,77
956,40	1476,59
956,58	1435,63
956,75	1427,43
956,92	1505,26
957,09	1441,77
957,26	1488,87
957,43	1447,91
957,60	1419,24
957,77	1476,59
957,95	1482,73
958,12	1474,54
958,29	1484,78
958,46	1478,63
958,63	1433,58
958,80	1540,07
958,97	1560,55
959,14	1464,30
959,31	1431,53
959,49	1429,48
959,66	1415,15
959,83	1495,02
960,00	1415,15
960,17	1566,70
960,34	1449,96
960,51	1449,96
960,68	1454,06
960,85	1535,98
961,02	1472,49
961,20	1474,54
961,37	1411,05
961,54	1484,78
961,71	1501,16
961,88	1490,92
962,05	1423,34
962,22	1558,50
962,39	1562,60
962,56	1449,96
962,73	1435,63
962,90	1488,87
963,07	1462,25
963,24	1468,39
963,42	1439,72
963,59	1517,54
963,76	1488,87
963,93	1591,27
964,10	1466,35
964,27	1437,67
964,44	1464,30
964,61	1548,26
964,78	1499,11
964,95	1437,67
965,12	1460,20
965,29	1486,83
965,46	1382,38
965,63	1519,59
965,80	1474,54
965,97	1384,43
966,14	1431,53
966,31	1429,48
966,48	1523,69
966,66	1507,30
966,83	1437,67
967,00	1488,87
967,17	1527,78
967,34	1538,02
967,51	1529,83
967,68	1466,35
967,85	1429,48
968,02	1542,12
968,19	1445,87
968,36	1415,15
968,53	1425,39
968,70	1497,07
968,87	1460,20
969,04	1490,92
969,21	1435,63
969,38	1570,79
969,55	1409,00
969,72	1499,11
969,89	1535,98
970,06	1415,15
970,23	1513,45
970,40	1456,11
970,57	1400,81
970,74	1476,59
970,91	1419,24
971,08	1501,16
971,25	1439,72
971,42	1507,30
971,59	1486,83
971,76	1447,91
971,93	1482,73
972,10	1402,86
972,27	1452,01
972,44	1423,34
972,61	1480,68
972,78	1468,39
972,95	1460,20
973,12	1515,50
973,29	1470,44
973,46	1419,24
973,63	1509,35
973,80	1523,69
973,97	1439,72
974,14	1531,88
974,30	1482,73
974,47	1521,64
974,64	1490,92
974,81	1433,58
974,98	1507,30
975,15	1478,63
975,32	1470,44
975,49	1449,96
975,66	1478,63
975,83	1560,55
976,00	1486,83
976,17	1445,87
976,34	1468,39
976,51	1490,92
976,68	1468,39
976,85	1464,30
977,02	1499,11
977,19	1421,29
977,36	1376,24
977,52	1472,49
977,69	1509,35
977,86	1535,98
978,03	1439,72
978,20	1503,21
978,37	1517,54
978,54	1497,07
978,71	1468,39
978,88	1495,02
979,05	1454,06
979,22	1439,72
979,39	1540,07
979,56	1392,62
979,72	1456,11
979,89	1488,87
980,06	1519,59
980,23	1546,22
980,40	1466,35
980,57	1484,78
980,74	1468,39
980,91	1409,00
981,08	1452,01
981,25	1462,25
981,41	1468,39
981,58	1355,76
981,75	1398,76
981,92	1501,16
982,09	1529,83
982,26	1429,48
982,43	1392,62
982,60	1515,50
982,77	1413,10
982,93	1466,35
983,10	1439,72
983,27	1425,39
983,44	1488,87
983,61	1503,21
983,78	1486,83
983,95	1419,24
984,11	1413,10
984,28	1488,87
984,45	1427,43
984,62	1517,54
984,79	1507,30
984,96	1497,07
985,13	1466,35
985,30	1415,15
985,46	1409,00
985,63	1460,20
985,80	1552,36
985,97	1396,71
986,14	1368,04
986,31	1535,98
986,47	1458,15
986,64	1402,86
986,81	1425,39
986,98	1427,43
987,15	1505,26
987,32	1517,54
987,48	1515,50
987,65	1503,21
987,82	1425,39
987,99	1535,98
988,16	1679,33
988,33	1585,13
988,49	1468,39
988,66	1437,67
988,83	1437,67
989,00	1458,15
989,17	1382,38
989,34	1535,98
989,50	1544,17
989,67	1521,64
989,84	1372,14
990,01	1437,67
990,18	1513,45
990,34	1529,83
990,51	1429,48
990,68	1499,11
990,85	1531,88
991,02	1445,87
991,18	1437,67
991,35	1429,48
991,52	1511,40
991,69	1423,34
991,86	1396,71
992,02	1417,19
992,19	1384,43
992,36	1462,25
992,53	1476,59
992,69	1452,01
992,86	1433,58
993,03	1517,54
993,20	1417,19
993,37	1546,22
993,53	1562,60
993,70	1423,34
993,87	1425,39
994,04	1519,59
994,20	1392,62
994,37	1497,07
994,54	1411,05
994,71	1474,54
994,87	1449,96
995,04	1507,30
995,21	1486,83
995,38	1495,02
995,55	1437,67
995,71	1431,53
995,88	1480,68
996,05	1419,24
996,22	1515,50
996,38	1427,43
996,55	1425,39
996,72	1402,86
996,88	1603,56
997,05	2316,25
997,22	1413,10
997,39	1460,20
997,55	1437,67
997,72	1452,01
997,89	1441,77
998,06	1423,34
998,22	1476,59
998,39	1441,77
998,56	1437,67
998,73	1437,67
998,89	1460,20
999,06	1435,63
999,23	1413,10
999,39	1400,81
999,56	1546,22
999,73	1503,21
999,90	1415,15
1000,06	1531,88
1000,23	1535,98
1000,40	1445,87
1000,56	1456,11
1000,73	1482,73
1000,90	1492,97
1001,06	1499,11
1001,23	1456,11
1001,40	1484,78
1001,57	1433,58
1001,73	1396,71
1001,90	1402,86
1002,07	1464,30
1002,23	1523,69
1002,40	1499,11
1002,57	1431,53
1002,73	1497,07
1002,90	1425,39
1003,07	1515,50
1003,23	1411,05
1003,40	1447,91
1003,57	1449,96
1003,73	1429,48
1003,90	1501,16
1004,07	1433,58
1004,23	1390,57
1004,40	1533,93
1004,57	1470,44
1004,73	1386,47
1004,90	1525,74
1005,07	1419,24
1005,23	1523,69
1005,40	1429,48
1005,57	1447,91
1005,73	1548,26
1005,90	1394,67
1006,07	1613,80
1006,23	1456,11
1006,40	1394,67
1006,57	1400,81
1006,73	1447,91
1006,90	1531,88
1007,06	1400,81
1007,23	1460,20
1007,40	1417,19
1007,56	1447,91
1007,73	1505,26
1007,90	1456,11
1008,06	1480,68
1008,23	1441,77
1008,40	1441,77
1008,56	1409,00
1008,73	1519,59
1008,89	1402,86
1009,06	1605,61
1009,23	1447,91
1009,39	1507,30
1009,56	1378,28
1009,72	1497,07
1009,89	1472,49
1010,06	1449,96
1010,22	1423,34
1010,39	1386,47
1010,55	1482,73
1010,72	1572,84
1010,89	1484,78
1011,05	1458,15
1011,22	1427,43
1011,38	1486,83
1011,55	1386,47
1011,72	1429,48
1011,88	1452,01
1012,05	1474,54
1012,21	1449,96
1012,38	1413,10
1012,55	1492,97
1012,71	1478,63
1012,88	1413,10
1013,04	1478,63
1013,21	1398,76
1013,37	1490,92
1013,54	1476,59
1013,71	1445,87
1013,87	1476,59
1014,04	1499,11
1014,20	1529,83
1014,37	1466,35
1014,53	1499,11
1014,70	1427,43
1014,87	1431,53
1015,03	1495,02
1015,20	1425,39
1015,36	1472,49
1015,53	1466,35
1015,69	1486,83
1015,86	1478,63
1016,02	1474,54
1016,19	1533,93
1016,36	1429,48
1016,52	1441,77
1016,69	1445,87
1016,85	1449,96
1017,02	1515,50
1017,18	1439,72
1017,35	1435,63
1017,51	1470,44
1017,68	1427,43
1017,84	1417,19
1018,01	1413,10
1018,17	1464,30
1018,34	1550,31
1018,50	1443,82
1018,67	1445,87
1018,84	1566,70
1019,00	1435,63
1019,17	1449,96
1019,33	1474,54
1019,50	1488,87
1019,66	1572,84
1019,83	1452,01
1019,99	1564,65
1020,16	1359,85
1020,32	1353,71
1020,49	1460,20
1020,65	1425,39
1020,82	1515,50
1020,98	1454,06
1021,15	1433,58
1021,31	1531,88
1021,48	1484,78
1021,64	1437,67
1021,81	1550,31
1021,97	1437,67
1022,14	1458,15
1022,30	1460,20
1022,47	1519,59
1022,63	1452,01
1022,79	1478,63
1022,96	1372,14
1023,12	1445,87
1023,29	1370,09
1023,45	1499,11
1023,62	1519,59
1023,78	1490,92
1023,95	1427,43
1024,11	1505,26
1024,28	1433,58
1024,44	1431,53
1024,61	1486,83
1024,77	1460,20
1024,94	1480,68
1025,10	1374,19
1025,26	1378,28
1025,43	1513,45
1025,59	1527,78
1025,76	1443,82
1025,92	1486,83
1026,09	1382,38
1026,25	1568,74
1026,42	1386,47
1026,58	1413,10
1026,74	1521,64
1026,91	1466,35
1027,07	1425,39
1027,24	1511,40
1027,40	1441,77
1027,57	1548,26
1027,73	1435,63
1027,90	1490,92
1028,06	1437,67
1028,22	1425,39
1028,39	1468,39
1028,55	1535,98
1028,72	1480,68
1028,88	1546,22
1029,04	1400,81
1029,21	1507,30
1029,37	1411,05
1029,54	1503,21
1029,70	1509,35
1029,87	1425,39
1030,03	1423,34
1030,19	1566,70
1030,36	1392,62
1030,52	1499,11
1030,69	1472,49
1030,85	1355,76
1031,01	1482,73
1031,18	1441,77
1031,34	1531,88
1031,50	1433,58
1031,67	1454,06
1031,83	1466,35
1032,00	1392,62
1032,16	1443,82
1032,32	1474,54
1032,49	1470,44
1032,65	1501,16
1032,82	1521,64
1032,98	1433,58
1033,14	1433,58
1033,31	1454,06
1033,47	1607,66
1033,63	1452,01
1033,80	1513,45
1033,96	1433,58
1034,13	1521,64
1034,29	1515,50
1034,45	1462,25
1034,62	1478,63
1034,78	1533,93
1034,94	1435,63
1035,11	1472,49
1035,27	1439,72
1035,43	1486,83
1035,60	1597,42
1035,76	1490,92
1035,92	1488,87
1036,09	1456,11
1036,25	1495,02
1036,41	1431,53
1036,58	1497,07
1036,74	1542,12
1036,90	1435,63
1037,07	1345,52
1037,23	1497,07
1037,39	1490,92
1037,56	1368,04
1037,72	1392,62
1037,88	1478,63
1038,05	1427,43
1038,21	1560,55
1038,37	1501,16
1038,54	1460,20
1038,70	1583,08
1038,86	1441,77
1039,03	1538,02
1039,19	1535,98
1039,35	1437,67
1039,52	1421,29
1039,68	1421,29
1039,84	1464,30
1040,00	1486,83
1040,17	1398,76
1040,33	1497,07
1040,49	1474,54
1040,66	1525,74
1040,82	1462,25
1040,98	1449,96
1041,15	1443,82
1041,31	1482,73
1041,47	1425,39
1041,63	1398,76
1041,80	1462,25
1041,96	1503,21
1042,12	1380,33
1042,29	1468,39
1042,45	1615,85
1042,61	1443,82
1042,77	1402,86
1042,94	1411,05
1043,10	1529,83
1043,26	1468,39
1043,42	1458,15
1043,59	1482,73
1043,75	1523,69
1043,91	1476,59
1044,07	1443,82
1044,24	1425,39
1044,40	1437,67
>>>>>End Processed Spectral Data<<<<<
