SpectraSuite Data File
++++++++++++++++++++++++++++++++++++
Date: Wed Sep 25 10:29:16 GMT-03:00 2024
User: Lavfis
Dark Spectrum Present: No
Reference Spectrum Present: No
Number of Sampled Component Spectra: 1
Spectrometers: USB4F02573
Integration Time (usec): 100000 (USB4F02573)
Spectra Averaged: 1 (USB4F02573)
Boxcar Smoothing: 0 (USB4F02573)
Correct for Electrical Dark: No (USB4F02573)
Strobe/Lamp Enabled: No (USB4F02573)
Correct for Detector Non-linearity: No (USB4F02573)
Correct for Stray Light: No (USB4F02573)
Number of Pixels in Processed Spectrum: 3648
>>>>>Begin Processed Spectral Data<<<<<
345,22	1294,32
345,44	1294,32
345,66	1294,32
345,88	1363,95
346,10	1325,04
346,32	1531,88
346,54	1562,60
346,75	1572,84
346,97	1505,26
347,19	1564,65
347,41	1531,88
347,63	1531,88
347,85	1478,63
348,07	1513,45
348,29	1568,74
348,51	1474,54
348,73	1593,32
348,95	1490,92
349,16	1650,66
349,38	1599,46
349,60	1728,49
349,82	1681,38
350,04	1648,61
350,26	1685,48
350,48	1753,06
350,70	1748,97
350,92	1814,50
351,14	1806,31
351,35	1753,06
351,57	1853,41
351,79	1869,80
352,01	1755,11
352,23	1843,17
352,45	1791,97
352,67	1859,56
352,89	1839,08
353,10	1855,46
353,32	1959,91
353,54	1994,72
353,76	2041,82
353,98	2025,44
354,20	1935,33
354,42	2056,16
354,64	2093,02
354,85	2230,24
355,07	2170,85
355,29	2291,68
355,51	2197,47
355,73	2353,12
355,95	2336,73
356,17	2404,32
356,38	2367,45
356,60	2568,15
356,82	2629,59
357,04	2598,87
357,26	2766,81
357,48	2836,44
357,69	2858,96
357,91	3030,99
358,13	3067,86
358,35	3100,62
358,57	3229,65
358,79	3295,18
359,01	3444,68
359,22	3518,41
359,44	3747,78
359,66	3776,45
359,88	3850,18
360,10	4030,40
360,32	4085,70
360,53	4288,45
360,75	4519,87
360,97	4546,49
361,19	4753,34
361,41	5040,05
361,62	5064,63
361,84	5240,75
362,06	5527,47
362,28	5568,43
362,50	5816,23
362,72	5939,11
362,93	6053,80
363,15	6076,32
363,37	6629,27
363,59	6967,19
363,81	7403,41
364,02	7841,67
364,24	8171,40
364,46	8730,49
364,68	9191,28
364,90	9822,06
365,11	10450,78
365,33	10856,28
365,55	11112,28
365,77	11808,59
365,99	12572,48
366,20	13360,95
366,42	13745,97
366,64	14606,11
366,86	15023,90
367,07	16156,43
367,29	16797,44
367,51	17508,08
367,73	18544,36
367,95	19777,23
368,16	20444,87
368,38	21472,95
368,60	22472,36
368,82	23873,17
369,03	25097,86
369,25	26426,99
369,47	27739,74
369,69	28268,11
369,91	29838,90
370,12	30293,55
370,34	31626,78
370,56	33674,75
370,78	35833,31
370,99	37782,98
371,21	38423,99
371,43	40648,08
371,65	42724,72
371,86	44563,80
372,08	46120,26
372,30	48520,48
372,52	50119,94
372,73	51328,24
372,95	52780,25
373,17	54052,04
373,39	56034,47
373,60	57230,49
373,82	57480,34
374,04	58123,40
374,26	59348,09
374,47	58449,03
374,69	58979,45
374,91	58459,27
375,12	58301,57
375,34	57373,84
375,56	56364,20
375,78	56071,34
375,99	53990,60
376,21	52348,13
376,43	50748,67
376,65	49558,80
376,86	47482,16
377,08	45436,23
377,30	43353,45
377,51	41876,86
377,73	39773,60
377,95	37957,05
378,17	35657,18
378,38	34674,16
378,60	33412,61
378,82	31577,63
379,03	30600,75
379,25	29410,88
379,47	28558,92
379,68	27045,48
379,90	25990,77
380,12	25538,17
380,34	24698,50
380,55	23967,38
380,77	23459,48
380,99	22857,38
381,20	22355,63
381,42	21925,55
381,64	21556,92
381,85	21651,13
382,07	21257,92
382,29	20672,20
382,50	20494,02
382,72	19805,91
382,94	19504,85
383,15	19388,12
383,37	18312,94
383,59	18530,02
383,80	17768,18
384,02	17876,72
384,24	16711,42
384,45	16441,09
384,67	16193,29
384,89	15662,86
385,10	15453,97
385,32	15027,99
385,54	14153,51
385,75	13805,36
385,97	13571,89
386,19	12889,92
386,40	12304,20
386,62	11716,43
386,84	11286,36
387,05	10983,26
387,27	10577,76
387,49	9940,84
387,70	9715,56
387,92	9318,26
388,14	8959,86
388,35	8621,95
388,57	8519,55
388,79	8200,07
389,00	7810,95
389,22	7651,21
389,43	7499,66
389,65	7270,29
389,87	6993,81
390,08	6825,88
390,30	6690,71
390,52	6590,36
390,73	6371,23
390,95	6242,21
391,17	6238,11
391,38	5990,31
391,60	5937,06
391,81	5980,07
392,03	5697,45
392,25	5570,48
392,46	5408,69
392,68	5586,86
392,89	5322,67
393,11	5291,95
393,33	5416,88
393,54	5285,81
393,76	5048,24
393,98	4890,55
394,19	4878,26
394,41	4761,53
394,62	4673,46
394,84	4698,04
395,06	4530,11
395,27	4569,02
395,49	4419,52
395,70	4386,75
395,92	4310,97
396,13	4255,68
396,35	4061,12
396,57	4014,02
396,78	3864,52
397,00	3835,85
397,21	4003,78
397,43	3807,17
397,65	3526,60
397,86	3702,73
398,08	3557,32
398,29	3499,98
398,51	3282,89
398,72	3293,13
398,94	3409,87
399,16	3076,05
399,37	2961,36
399,59	3071,95
399,80	2994,13
400,02	2932,69
400,23	2918,36
400,45	2850,77
400,67	2938,84
400,88	2785,24
401,10	2658,26
401,31	2643,93
401,53	2547,67
401,74	2559,96
401,96	2639,83
402,17	2602,97
402,39	2502,62
402,61	2549,72
402,82	2465,75
403,04	2512,86
403,25	2455,51
403,47	2410,46
403,68	2310,11
403,90	2428,89
404,11	2342,88
404,33	2189,28
404,54	2426,84
404,76	2293,72
404,97	2246,62
405,19	2365,40
405,41	2222,05
405,62	2334,68
405,84	2195,42
406,05	2236,38
406,27	2142,18
406,48	2217,95
406,70	2113,50
406,91	2183,13
407,13	2023,39
407,34	2101,22
407,56	2220,00
407,77	2084,83
407,99	2078,69
408,20	2123,74
408,42	1988,58
408,63	2031,58
408,85	1994,72
409,06	2072,54
409,28	2013,15
409,49	1933,28
409,71	1929,19
409,92	1957,86
410,14	1957,86
410,35	1992,67
410,57	1912,80
410,78	1861,60
411,00	1904,61
411,21	1886,18
411,43	1804,26
411,64	1839,08
411,86	1890,28
412,07	1943,52
412,29	1822,69
412,50	1800,16
412,72	1927,14
412,93	1968,10
413,15	1818,60
413,36	1773,54
413,58	1892,32
413,79	1812,45
414,01	1851,36
414,22	1859,56
414,43	1816,55
414,65	1875,94
414,86	1794,02
415,08	1798,12
415,29	1808,36
415,51	1773,54
415,72	1765,35
415,94	1730,53
416,15	1787,88
416,37	1812,45
416,58	1701,86
416,80	1732,58
417,01	1783,78
417,22	1699,81
417,44	1759,21
417,65	1738,73
417,87	1699,81
418,08	1886,18
418,30	1646,57
418,51	1751,01
418,73	1701,86
418,94	1683,43
419,15	1744,87
419,37	1818,60
419,58	1675,24
419,80	1716,20
420,01	1748,97
420,23	1732,58
420,44	1710,05
420,65	1679,33
420,87	1798,12
421,08	1716,20
421,30	1853,41
421,51	1748,97
421,73	1689,57
421,94	1595,37
422,15	1642,47
422,37	1652,71
422,58	1587,18
422,80	1685,48
423,01	1681,38
423,22	1587,18
423,44	1621,99
423,65	1746,92
423,87	1613,80
424,08	1779,68
424,29	1628,14
424,51	1597,42
424,72	1740,77
424,94	1621,99
425,15	1660,90
425,36	1746,92
425,58	1679,33
425,79	1818,60
426,01	1791,97
426,22	1683,43
426,43	1728,49
426,65	1636,33
426,86	1660,90
427,08	1738,73
427,29	1550,31
427,50	1587,18
427,72	1589,22
427,93	1626,09
428,14	1660,90
428,36	1624,04
428,57	1644,52
428,79	1660,90
429,00	1738,73
429,21	1658,85
429,43	1699,81
429,64	1648,61
429,85	1646,57
430,07	1630,18
430,28	1619,94
430,49	1644,52
430,71	1619,94
430,92	1654,76
431,14	1714,15
431,35	1708,01
431,56	1699,81
431,78	1626,09
431,99	1703,91
432,20	1677,29
432,42	1615,85
432,63	1685,48
432,84	1665,00
433,06	1585,13
433,27	1658,85
433,48	1640,42
433,70	1589,22
433,91	1753,06
434,12	1591,27
434,34	1671,14
434,55	1679,33
434,76	1593,32
434,98	1644,52
435,19	1574,89
435,40	1583,08
435,62	1660,90
435,83	1728,49
436,04	1593,32
436,26	1636,33
436,47	1560,55
436,68	1574,89
436,90	1621,99
437,11	1710,05
437,32	1675,24
437,54	1691,62
437,75	1562,60
437,96	1705,96
438,17	1650,66
438,39	1650,66
438,60	1636,33
438,81	1624,04
439,03	1730,53
439,24	1581,03
439,45	1693,67
439,67	1626,09
439,88	1617,90
440,09	1591,27
440,30	1703,91
440,52	1611,75
440,73	1593,32
440,94	1595,37
441,16	1634,28
441,37	1624,04
441,58	1609,70
441,80	1609,70
442,01	1646,57
442,22	1667,05
442,43	1585,13
442,65	1701,86
442,86	1716,20
443,07	1650,66
443,28	1538,02
443,50	1613,80
443,71	1570,79
443,92	1656,81
444,14	1632,23
444,35	1646,57
444,56	1556,46
444,77	1554,41
444,99	1605,61
445,20	1591,27
445,41	1658,85
445,62	1665,00
445,84	1658,85
446,05	1652,71
446,26	1683,43
446,47	1634,28
446,69	1619,94
446,90	1595,37
447,11	1660,90
447,32	1517,54
447,54	1648,61
447,75	1599,46
447,96	1605,61
448,17	1640,42
448,39	1626,09
448,60	1523,69
448,81	1689,57
449,02	1646,57
449,23	1617,90
449,45	1689,57
449,66	1724,39
449,87	1640,42
450,08	1648,61
450,30	1581,03
450,51	1650,66
450,72	1693,67
450,93	1638,38
451,15	1640,42
451,36	1597,42
451,57	1665,00
451,78	1624,04
451,99	1581,03
452,21	1566,70
452,42	1626,09
452,63	1570,79
452,84	1544,17
453,05	1605,61
453,27	1638,38
453,48	1789,92
453,69	1558,50
453,90	1724,39
454,11	1613,80
454,33	1482,73
454,54	1542,12
454,75	1607,66
454,96	1605,61
455,17	1626,09
455,39	1624,04
455,60	1490,92
455,81	1658,85
456,02	1556,46
456,23	1613,80
456,45	1673,19
456,66	1726,44
456,87	1634,28
457,08	1716,20
457,29	1701,86
457,50	1560,55
457,72	1638,38
457,93	1562,60
458,14	1665,00
458,35	1609,70
458,56	1617,90
458,77	1562,60
458,99	1636,33
459,20	1656,81
459,41	1613,80
459,62	1636,33
459,83	1570,79
460,04	1556,46
460,26	1658,85
460,47	1583,08
460,68	1601,51
460,89	1533,93
461,10	1644,52
461,31	1679,33
461,52	1591,27
461,74	1671,14
461,95	1578,98
462,16	1642,47
462,37	1568,74
462,58	1654,76
462,79	1613,80
463,00	1667,05
463,22	1703,91
463,43	1628,14
463,64	1691,62
463,85	1615,85
464,06	1699,81
464,27	1548,26
464,48	1650,66
464,70	1646,57
464,91	1613,80
465,12	1605,61
465,33	1624,04
465,54	1775,59
465,75	1554,41
465,96	1652,71
466,17	1546,22
466,38	1712,10
466,60	1632,23
466,81	1673,19
467,02	1640,42
467,23	1662,95
467,44	1716,20
467,65	1605,61
467,86	1712,10
468,07	1597,42
468,28	1677,29
468,50	1509,35
468,71	1703,91
468,92	1628,14
469,13	1581,03
469,34	1591,27
469,55	1662,95
469,76	1615,85
469,97	1654,76
470,18	1595,37
470,39	1603,56
470,60	1560,55
470,82	1665,00
471,03	1578,98
471,24	1630,18
471,45	1660,90
471,66	1640,42
471,87	1525,74
472,08	1630,18
472,29	1583,08
472,50	1695,72
472,71	1562,60
472,92	1656,81
473,13	1632,23
473,34	1648,61
473,55	1533,93
473,77	1712,10
473,98	1644,52
474,19	1703,91
474,40	1560,55
474,61	1621,99
474,82	1589,22
475,03	1587,18
475,24	1531,88
475,45	1718,25
475,66	1621,99
475,87	1570,79
476,08	1630,18
476,29	1734,63
476,50	1683,43
476,71	1693,67
476,92	1615,85
477,13	1671,14
477,34	1609,70
477,55	1658,85
477,76	1744,87
477,97	1701,86
478,18	1591,27
478,40	1517,54
478,61	1646,57
478,82	1585,13
479,03	1640,42
479,24	1658,85
479,45	1599,46
479,66	1681,38
479,87	1732,58
480,08	1525,74
480,29	1662,95
480,50	1734,63
480,71	1517,54
480,92	1726,44
481,13	1550,31
481,34	1634,28
481,55	1609,70
481,76	1576,94
481,97	1642,47
482,18	1716,20
482,39	1527,78
482,60	1683,43
482,81	1589,22
483,02	1703,91
483,23	1675,24
483,44	1660,90
483,65	1525,74
483,86	1624,04
484,07	1708,01
484,28	1665,00
484,49	1648,61
484,70	1701,86
484,91	1679,33
485,12	1609,70
485,33	1644,52
485,54	1687,53
485,75	1564,65
485,96	1652,71
486,17	1654,76
486,38	1624,04
486,59	1667,05
486,80	1681,38
487,01	1611,75
487,21	1662,95
487,42	1509,35
487,63	1656,81
487,84	1636,33
488,05	1626,09
488,26	1816,55
488,47	1611,75
488,68	1587,18
488,89	1726,44
489,10	1544,17
489,31	1654,76
489,52	1605,61
489,73	1710,05
489,94	1689,57
490,15	1650,66
490,36	1712,10
490,57	1677,29
490,78	1572,84
490,99	1720,29
491,20	1632,23
491,41	1720,29
491,61	1794,02
491,82	1652,71
492,03	1671,14
492,24	1755,11
492,45	1597,42
492,66	1646,57
492,87	1673,19
493,08	1630,18
493,29	1570,79
493,50	1611,75
493,71	1662,95
493,92	1595,37
494,13	1681,38
494,34	1605,61
494,54	1660,90
494,75	1746,92
494,96	1748,97
495,17	1648,61
495,38	1677,29
495,59	1572,84
495,80	1642,47
496,01	1714,15
496,22	1675,24
496,43	1691,62
496,64	1642,47
496,84	1638,38
497,05	1708,01
497,26	1691,62
497,47	1675,24
497,68	1703,91
497,89	1578,98
498,10	1679,33
498,31	1712,10
498,52	1728,49
498,72	1697,77
498,93	1646,57
499,14	1634,28
499,35	1617,90
499,56	1673,19
499,77	1654,76
499,98	1644,52
500,19	1746,92
500,40	1640,42
500,60	1550,31
500,81	1791,97
501,02	1597,42
501,23	1761,25
501,44	1728,49
501,65	1660,90
501,86	1626,09
502,06	1662,95
502,27	1699,81
502,48	1783,78
502,69	1703,91
502,90	1789,92
503,11	1546,22
503,32	1767,40
503,53	1714,15
503,73	1658,85
503,94	1746,92
504,15	1802,21
504,36	1693,67
504,57	1673,19
504,78	1691,62
504,98	1665,00
505,19	1617,90
505,40	1693,67
505,61	1665,00
505,82	1662,95
506,03	1763,30
506,23	1658,85
506,44	1726,44
506,65	1748,97
506,86	1662,95
507,07	1691,62
507,28	1691,62
507,48	1703,91
507,69	1751,01
507,90	1585,13
508,11	1595,37
508,32	1695,72
508,53	1703,91
508,73	1638,38
508,94	1628,14
509,15	1671,14
509,36	1574,89
509,57	1613,80
509,77	1683,43
509,98	1617,90
510,19	1705,96
510,40	1681,38
510,61	1656,81
510,81	1656,81
511,02	1763,30
511,23	1673,19
511,44	1673,19
511,65	1603,56
511,85	1677,29
512,06	1662,95
512,27	1667,05
512,48	1695,72
512,69	1824,74
512,89	1730,53
513,10	1740,77
513,31	1697,77
513,52	1687,53
513,73	1761,25
513,93	1765,35
514,14	1783,78
514,35	1773,54
514,56	1716,20
514,76	1720,29
514,97	1751,01
515,18	1718,25
515,39	1718,25
515,60	1757,16
515,80	1787,88
516,01	1751,01
516,22	1810,40
516,43	1626,09
516,63	1755,11
516,84	1794,02
517,05	1677,29
517,26	1712,10
517,46	1767,40
517,67	1720,29
517,88	1714,15
518,09	1710,05
518,29	1755,11
518,50	1816,55
518,71	1689,57
518,92	1810,40
519,12	1765,35
519,33	1761,25
519,54	1718,25
519,75	1812,45
519,95	1687,53
520,16	1738,73
520,37	1626,09
520,57	1769,44
520,78	1912,80
520,99	1755,11
521,20	1714,15
521,40	1615,85
521,61	1761,25
521,82	1615,85
522,03	1712,10
522,23	1740,77
522,44	1714,15
522,65	1654,76
522,85	1748,97
523,06	1705,96
523,27	1636,33
523,48	1755,11
523,68	1724,39
523,89	1753,06
524,10	1728,49
524,30	1671,14
524,51	1771,49
524,72	1695,72
524,93	1675,24
525,13	1646,57
525,34	1728,49
525,55	1730,53
525,75	1765,35
525,96	1673,19
526,17	1662,95
526,37	1822,69
526,58	1820,64
526,79	1751,01
526,99	1673,19
527,20	1767,40
527,41	1695,72
527,62	1730,53
527,82	1710,05
528,03	1697,77
528,24	1679,33
528,44	1857,51
528,65	1617,90
528,86	1734,63
529,06	1675,24
529,27	1742,82
529,48	1732,58
529,68	1830,88
529,89	1738,73
530,10	1740,77
530,30	1724,39
530,51	1697,77
530,72	1705,96
530,92	1632,23
531,13	1781,73
531,34	1708,01
531,54	1662,95
531,75	1744,87
531,96	1857,51
532,16	1777,64
532,37	1763,30
532,57	1791,97
532,78	1765,35
532,99	1761,25
533,19	1789,92
533,40	1755,11
533,61	1660,90
533,81	1767,40
534,02	1742,82
534,23	1699,81
534,43	1667,05
534,64	1730,53
534,84	1763,30
535,05	1765,35
535,26	1759,21
535,46	1769,44
535,67	1806,31
535,88	1734,63
536,08	1646,57
536,29	1775,59
536,49	1728,49
536,70	1753,06
536,91	1683,43
537,11	1767,40
537,32	1683,43
537,53	1861,60
537,73	1812,45
537,94	1658,85
538,14	1697,77
538,35	1697,77
538,56	1728,49
538,76	1685,48
538,97	1763,30
539,17	1734,63
539,38	1806,31
539,59	1779,68
539,79	1755,11
540,00	1746,92
540,20	1742,82
540,41	1734,63
540,62	1873,89
540,82	1732,58
541,03	1781,73
541,23	1744,87
541,44	1677,29
541,64	1810,40
541,85	1660,90
542,06	1753,06
542,26	1677,29
542,47	1726,44
542,67	1714,15
542,88	1806,31
543,08	1675,24
543,29	1783,78
543,50	1841,12
543,70	1812,45
543,91	1734,63
544,11	1789,92
544,32	1861,60
544,52	1787,88
544,73	1677,29
544,94	1714,15
545,14	1714,15
545,35	1683,43
545,55	1751,01
545,76	1775,59
545,96	1808,36
546,17	1726,44
546,37	1734,63
546,58	1730,53
546,78	1660,90
546,99	1701,86
547,20	1789,92
547,40	1791,97
547,61	1775,59
547,81	1705,96
548,02	1769,44
548,22	1716,20
548,43	1843,17
548,63	1705,96
548,84	1847,27
549,04	1734,63
549,25	1746,92
549,45	1701,86
549,66	1640,42
549,86	1769,44
550,07	1814,50
550,27	1683,43
550,48	1759,21
550,69	1779,68
550,89	1843,17
551,10	1738,73
551,30	1812,45
551,51	1697,77
551,71	1777,64
551,92	1802,21
552,12	1738,73
552,33	1822,69
552,53	1603,56
552,74	1783,78
552,94	1804,26
553,15	1738,73
553,35	1902,56
553,56	1726,44
553,76	1669,09
553,97	1783,78
554,17	1759,21
554,38	1763,30
554,58	1814,50
554,79	1665,00
554,99	1638,38
555,19	1646,57
555,40	1748,97
555,60	1763,30
555,81	1703,91
556,01	1759,21
556,22	1771,49
556,42	1771,49
556,63	1652,71
556,83	1875,94
557,04	1716,20
557,24	1789,92
557,45	1751,01
557,65	1705,96
557,86	1701,86
558,06	1767,40
558,27	1695,72
558,47	1769,44
558,67	1771,49
558,88	1787,88
559,08	1755,11
559,29	1691,62
559,49	1703,91
559,70	1716,20
559,90	1775,59
560,11	1759,21
560,31	1681,38
560,52	1771,49
560,72	1738,73
560,92	1728,49
561,13	1740,77
561,33	1767,40
561,54	1710,05
561,74	1781,73
561,95	1669,09
562,15	1816,55
562,35	1648,61
562,56	1826,79
562,76	1630,18
562,97	1802,21
563,17	1724,39
563,38	1820,64
563,58	1787,88
563,78	1796,07
563,99	1714,15
564,19	1708,01
564,40	1761,25
564,60	1765,35
564,80	1712,10
565,01	1665,00
565,21	1742,82
565,42	1826,79
565,62	1720,29
565,83	1720,29
566,03	1740,77
566,23	1777,64
566,44	1779,68
566,64	1703,91
566,85	1746,92
567,05	1755,11
567,25	1652,71
567,46	1820,64
567,66	1742,82
567,86	1800,16
568,07	1695,72
568,27	1789,92
568,48	1652,71
568,68	1648,61
568,88	1677,29
569,09	1716,20
569,29	1720,29
569,50	1630,18
569,70	1769,44
569,90	1771,49
570,11	1695,72
570,31	1673,19
570,51	1794,02
570,72	1640,42
570,92	1720,29
571,13	1783,78
571,33	1677,29
571,53	1818,60
571,74	1781,73
571,94	1769,44
572,14	1761,25
572,35	1658,85
572,55	1738,73
572,75	1806,31
572,96	1794,02
573,16	1716,20
573,36	1765,35
573,57	1662,95
573,77	1763,30
573,97	1720,29
574,18	1669,09
574,38	1748,97
574,59	1775,59
574,79	1802,21
574,99	1757,16
575,20	1724,39
575,40	1742,82
575,60	1816,55
575,81	1877,99
576,01	1732,58
576,21	1751,01
576,42	1705,96
576,62	1703,91
576,82	1617,90
577,02	1658,85
577,23	1683,43
577,43	1732,58
577,63	1820,64
577,84	1615,85
578,04	1714,15
578,24	1740,77
578,45	1722,34
578,65	1644,52
578,85	1650,66
579,06	1812,45
579,26	1757,16
579,46	1779,68
579,67	1687,53
579,87	1759,21
580,07	1720,29
580,27	1667,05
580,48	1687,53
580,68	1769,44
580,88	1710,05
581,09	1722,34
581,29	1751,01
581,49	1779,68
581,69	1662,95
581,90	1642,47
582,10	1652,71
582,30	1744,87
582,51	1703,91
582,71	1628,14
582,91	1621,99
583,11	1726,44
583,32	1779,68
583,52	1712,10
583,72	1624,04
583,93	1687,53
584,13	1705,96
584,33	1695,72
584,53	1695,72
584,74	1794,02
584,94	1638,38
585,14	1630,18
585,34	1798,12
585,55	1675,24
585,75	1730,53
585,95	1695,72
586,15	1609,70
586,36	1677,29
586,56	1775,59
586,76	1771,49
586,96	1669,09
587,17	1703,91
587,37	1730,53
587,57	1560,55
587,77	1650,66
587,98	1791,97
588,18	1654,76
588,38	1699,81
588,58	1681,38
588,79	1722,34
588,99	1665,00
589,19	1740,77
589,39	1617,90
589,60	1720,29
589,80	1742,82
590,00	1662,95
590,20	1703,91
590,40	1748,97
590,61	1726,44
590,81	1685,48
591,01	1607,66
591,21	1689,57
591,42	1640,42
591,62	1597,42
591,82	1556,46
592,02	1748,97
592,22	1789,92
592,43	1667,05
592,63	1785,83
592,83	1818,60
593,03	1728,49
593,23	1738,73
593,44	1742,82
593,64	1665,00
593,84	1673,19
594,04	1718,25
594,24	1720,29
594,45	1716,20
594,65	1621,99
594,85	1755,11
595,05	1693,67
595,25	1742,82
595,46	1751,01
595,66	1642,47
595,86	1654,76
596,06	1632,23
596,26	1581,03
596,46	1658,85
596,67	1615,85
596,87	1677,29
597,07	1605,61
597,27	1583,08
597,47	1591,27
597,67	1718,25
597,88	1675,24
598,08	1605,61
598,28	1722,34
598,48	1693,67
598,68	1701,86
598,88	1748,97
599,09	1736,68
599,29	1599,46
599,49	1683,43
599,69	1662,95
599,89	1685,48
600,09	1650,66
600,30	1681,38
600,50	1683,43
600,70	1708,01
600,90	1628,14
601,10	1693,67
601,30	1652,71
601,50	1730,53
601,71	1763,30
601,91	1716,20
602,11	1640,42
602,31	1597,42
602,51	1630,18
602,71	1615,85
602,91	1699,81
603,11	1636,33
603,32	1613,80
603,52	1613,80
603,72	1691,62
603,92	1593,32
604,12	1646,57
604,32	1638,38
604,52	1632,23
604,72	1660,90
604,93	1697,77
605,13	1679,33
605,33	1634,28
605,53	1615,85
605,73	1615,85
605,93	1708,01
606,13	1615,85
606,33	1624,04
606,53	1574,89
606,74	1677,29
606,94	1714,15
607,14	1671,14
607,34	1621,99
607,54	1576,94
607,74	1708,01
607,94	1583,08
608,14	1789,92
608,34	1576,94
608,54	1628,14
608,74	1611,75
608,95	1644,52
609,15	1644,52
609,35	1595,37
609,55	1611,75
609,75	1626,09
609,95	1714,15
610,15	1638,38
610,35	1585,13
610,55	1656,81
610,75	1673,19
610,95	1626,09
611,15	1589,22
611,35	1710,05
611,55	1626,09
611,76	1699,81
611,96	1591,27
612,16	1650,66
612,36	1644,52
612,56	1701,86
612,76	1650,66
612,96	1744,87
613,16	1769,44
613,36	1597,42
613,56	1671,14
613,76	1656,81
613,96	1718,25
614,16	1568,74
614,36	1554,41
614,56	1605,61
614,76	1662,95
614,96	1667,05
615,16	1572,84
615,36	1630,18
615,56	1552,36
615,76	1626,09
615,97	1642,47
616,17	1636,33
616,37	1654,76
616,57	1628,14
616,77	1662,95
616,97	1660,90
617,17	1617,90
617,37	1677,29
617,57	1578,98
617,77	1646,57
617,97	1697,77
618,17	1513,45
618,37	1634,28
618,57	1669,09
618,77	1595,37
618,97	1597,42
619,17	1581,03
619,37	1652,71
619,57	1599,46
619,77	1621,99
619,97	1673,19
620,17	1685,48
620,37	1630,18
620,57	1601,51
620,77	1691,62
620,97	1632,23
621,17	1646,57
621,37	1626,09
621,57	1621,99
621,77	1654,76
621,97	1636,33
622,17	1642,47
622,37	1597,42
622,57	1615,85
622,77	1636,33
622,97	1554,41
623,17	1578,98
623,37	1654,76
623,57	1720,29
623,77	1583,08
623,97	1589,22
624,16	1511,40
624,36	1667,05
624,56	1542,12
624,76	1669,09
624,96	1521,64
625,16	1593,32
625,36	1568,74
625,56	1630,18
625,76	1550,31
625,96	1656,81
626,16	1591,27
626,36	1632,23
626,56	1771,49
626,76	1708,01
626,96	1583,08
627,16	1583,08
627,36	1560,55
627,56	1689,57
627,76	1634,28
627,96	1679,33
628,16	1783,78
628,35	1714,15
628,55	1607,66
628,75	1585,13
628,95	1525,74
629,15	1658,85
629,35	1581,03
629,55	1581,03
629,75	1685,48
629,95	1544,17
630,15	1687,53
630,35	1583,08
630,55	1591,27
630,75	1574,89
630,95	1763,30
631,14	1574,89
631,34	1630,18
631,54	1578,98
631,74	1679,33
631,94	1605,61
632,14	1583,08
632,34	1626,09
632,54	1599,46
632,74	1564,65
632,94	1538,02
633,14	1652,71
633,33	1576,94
633,53	1550,31
633,73	1726,44
633,93	1648,61
634,13	1578,98
634,33	1646,57
634,53	1556,46
634,73	1601,51
634,93	1560,55
635,12	1662,95
635,32	1611,75
635,52	1566,70
635,72	1595,37
635,92	1550,31
636,12	1677,29
636,32	1544,17
636,52	1632,23
636,71	1619,94
636,91	1597,42
637,11	1644,52
637,31	1630,18
637,51	1513,45
637,71	1736,68
637,91	1585,13
638,11	1601,51
638,30	1589,22
638,50	1529,83
638,70	1724,39
638,90	1601,51
639,10	1617,90
639,30	1615,85
639,50	1656,81
639,69	1613,80
639,89	1531,88
640,09	1578,98
640,29	1578,98
640,49	1576,94
640,69	1548,26
640,88	1527,78
641,08	1597,42
641,28	1667,05
641,48	1626,09
641,68	1525,74
641,88	1626,09
642,07	1501,16
642,27	1662,95
642,47	1583,08
642,67	1570,79
642,87	1605,61
643,07	1593,32
643,26	1581,03
643,46	1617,90
643,66	1523,69
643,86	1609,70
644,06	1609,70
644,26	1589,22
644,45	1593,32
644,65	1523,69
644,85	1560,55
645,05	1632,23
645,25	1605,61
645,44	1597,42
645,64	1591,27
645,84	1578,98
646,04	1480,68
646,24	1587,18
646,43	1703,91
646,63	1746,92
646,83	1552,36
647,03	1617,90
647,23	1544,17
647,42	1591,27
647,62	1634,28
647,82	1624,04
648,02	1468,39
648,22	1611,75
648,41	1583,08
648,61	1658,85
648,81	1681,38
649,01	1574,89
649,20	1595,37
649,40	1531,88
649,60	1744,87
649,80	1558,50
650,00	1576,94
650,19	1591,27
650,39	1521,64
650,59	1652,71
650,79	1529,83
650,98	1603,56
651,18	1546,22
651,38	1585,13
651,58	1554,41
651,77	1564,65
651,97	1599,46
652,17	1587,18
652,37	1601,51
652,56	1574,89
652,76	1548,26
652,96	1523,69
653,16	1554,41
653,35	1499,11
653,55	1554,41
653,75	1472,49
653,95	1628,14
654,14	1562,60
654,34	1441,77
654,54	1576,94
654,74	1552,36
654,93	1576,94
655,13	1617,90
655,33	1519,59
655,52	1597,42
655,72	1673,19
655,92	1488,87
656,12	1554,41
656,31	1613,80
656,51	1578,98
656,71	1509,35
656,91	1632,23
657,10	1542,12
657,30	1556,46
657,50	1574,89
657,69	1583,08
657,89	1538,02
658,09	1683,43
658,29	1675,24
658,48	1619,94
658,68	1611,75
658,88	1634,28
659,07	1574,89
659,27	1611,75
659,47	1556,46
659,66	1574,89
659,86	1540,07
660,06	1599,46
660,26	1519,59
660,45	1671,14
660,65	1621,99
660,85	1617,90
661,04	1566,70
661,24	1593,32
661,44	1523,69
661,63	1550,31
661,83	1597,42
662,03	1538,02
662,22	1572,84
662,42	1601,51
662,62	1628,14
662,81	1521,64
663,01	1624,04
663,21	1621,99
663,40	1474,54
663,60	1617,90
663,80	1642,47
663,99	1566,70
664,19	1583,08
664,39	1650,66
664,58	1628,14
664,78	1564,65
664,98	1550,31
665,17	1605,61
665,37	1574,89
665,57	1665,00
665,76	1529,83
665,96	1540,07
666,16	1632,23
666,35	1601,51
666,55	1617,90
666,74	1568,74
666,94	1662,95
667,14	1486,83
667,33	1566,70
667,53	1607,66
667,73	1544,17
667,92	1656,81
668,12	1589,22
668,32	1632,23
668,51	1515,50
668,71	1544,17
668,90	1513,45
669,10	1527,78
669,30	1542,12
669,49	1628,14
669,69	1589,22
669,89	1564,65
670,08	1540,07
670,28	1814,50
670,47	1613,80
670,67	1585,13
670,87	1599,46
671,06	1677,29
671,26	1624,04
671,45	1517,54
671,65	1583,08
671,85	1550,31
672,04	1554,41
672,24	1519,59
672,43	1505,26
672,63	1529,83
672,83	1513,45
673,02	1484,78
673,22	1466,35
673,41	1560,55
673,61	1456,11
673,81	1466,35
674,00	1609,70
674,20	1601,51
674,39	1570,79
674,59	1484,78
674,78	1503,21
674,98	1712,10
675,18	1634,28
675,37	1499,11
675,57	1576,94
675,76	1634,28
675,96	1636,33
676,15	1540,07
676,35	1495,02
676,55	1578,98
676,74	1517,54
676,94	1513,45
677,13	1511,40
677,33	1585,13
677,52	1570,79
677,72	1568,74
677,91	1480,68
678,11	1562,60
678,31	1581,03
678,50	1531,88
678,70	1595,37
678,89	1572,84
679,09	1595,37
679,28	1484,78
679,48	1564,65
679,67	1597,42
679,87	1609,70
680,06	1740,77
680,26	1636,33
680,46	1552,36
680,65	1615,85
680,85	1507,30
681,04	1576,94
681,24	1538,02
681,43	1538,02
681,63	1572,84
681,82	1589,22
682,02	1521,64
682,21	1591,27
682,41	1503,21
682,60	1613,80
682,80	1562,60
682,99	1556,46
683,19	1642,47
683,38	1589,22
683,58	1671,14
683,77	1607,66
683,97	1572,84
684,16	1687,53
684,36	1509,35
684,55	1560,55
684,75	1466,35
684,94	1576,94
685,14	1533,93
685,33	1593,32
685,53	1484,78
685,72	1574,89
685,92	1695,72
686,11	1566,70
686,31	1566,70
686,50	1603,56
686,70	1525,74
686,89	1556,46
687,09	1509,35
687,28	1552,36
687,48	1564,65
687,67	1589,22
687,87	1558,50
688,06	1597,42
688,26	1628,14
688,45	1531,88
688,65	1521,64
688,84	1597,42
689,03	1517,54
689,23	1488,87
689,42	1755,11
689,62	1599,46
689,81	1581,03
690,01	1548,26
690,20	1562,60
690,40	1599,46
690,59	1685,48
690,79	1533,93
690,98	1613,80
691,17	1562,60
691,37	1589,22
691,56	1542,12
691,76	1675,24
691,95	1538,02
692,15	1415,15
692,34	1554,41
692,54	1525,74
692,73	1507,30
692,92	1652,71
693,12	1572,84
693,31	1562,60
693,51	1546,22
693,70	1595,37
693,90	1554,41
694,09	1578,98
694,28	1634,28
694,48	1542,12
694,67	1595,37
694,87	1558,50
695,06	1562,60
695,26	1558,50
695,45	1523,69
695,64	1601,51
695,84	1630,18
696,03	1533,93
696,23	1638,38
696,42	1525,74
696,61	1548,26
696,81	1495,02
697,00	1538,02
697,20	1603,56
697,39	1513,45
697,58	1484,78
697,78	1593,32
697,97	1583,08
698,17	1517,54
698,36	1562,60
698,55	1505,26
698,75	1681,38
698,94	1509,35
699,14	1458,15
699,33	1488,87
699,52	1589,22
699,72	1589,22
699,91	1583,08
700,10	1527,78
700,30	1589,22
700,49	1531,88
700,69	1525,74
700,88	1533,93
701,07	1519,59
701,27	1499,11
701,46	1726,44
701,65	1609,70
701,85	1515,50
702,04	1662,95
702,23	1486,83
702,43	1515,50
702,62	1546,22
702,82	1495,02
703,01	1656,81
703,20	1589,22
703,40	1562,60
703,59	1499,11
703,78	1513,45
703,98	1572,84
704,17	1544,17
704,36	1538,02
704,56	1681,38
704,75	1560,55
704,94	1456,11
705,14	1591,27
705,33	1617,90
705,52	1538,02
705,72	1517,54
705,91	1583,08
706,10	1515,50
706,30	1554,41
706,49	1644,52
706,68	1576,94
706,88	1632,23
707,07	1501,16
707,26	1499,11
707,46	1572,84
707,65	1595,37
707,84	1550,31
708,04	1468,39
708,23	1597,42
708,42	1619,94
708,62	1503,21
708,81	1501,16
709,00	1624,04
709,19	1605,61
709,39	1474,54
709,58	1546,22
709,77	1515,50
709,97	1613,80
710,16	1527,78
710,35	1624,04
710,55	1597,42
710,74	1583,08
710,93	1552,36
711,12	1552,36
711,32	1474,54
711,51	1574,89
711,70	1511,40
711,90	1513,45
712,09	1517,54
712,28	1560,55
712,47	1556,46
712,67	1515,50
712,86	1562,60
713,05	1583,08
713,24	1521,64
713,44	1501,16
713,63	1521,64
713,82	1482,73
714,02	1591,27
714,21	1613,80
714,40	1529,83
714,59	1554,41
714,79	1517,54
714,98	1556,46
715,17	1658,85
715,36	1478,63
715,56	1640,42
715,75	1605,61
715,94	1597,42
716,13	1513,45
716,33	1490,92
716,52	1599,46
716,71	1527,78
716,90	1413,10
717,10	1538,02
717,29	1548,26
717,48	1544,17
717,67	1591,27
717,87	1556,46
718,06	1593,32
718,25	1552,36
718,44	1591,27
718,63	1548,26
718,83	1507,30
719,02	1501,16
719,21	1626,09
719,40	1535,98
719,60	1509,35
719,79	1499,11
719,98	1511,40
720,17	1513,45
720,36	1556,46
720,56	1535,98
720,75	1492,97
720,94	1609,70
721,13	1576,94
721,33	1576,94
721,52	1476,59
721,71	1595,37
721,90	1615,85
722,09	1562,60
722,29	1542,12
722,48	1521,64
722,67	1527,78
722,86	1681,38
723,05	1497,07
723,24	1617,90
723,44	1574,89
723,63	1591,27
723,82	1566,70
724,01	1492,97
724,20	1513,45
724,40	1482,73
724,59	1560,55
724,78	1411,05
724,97	1454,06
725,16	1505,26
725,35	1587,18
725,55	1542,12
725,74	1609,70
725,93	1665,00
726,12	1497,07
726,31	1601,51
726,51	1634,28
726,70	1581,03
726,89	1538,02
727,08	1558,50
727,27	1589,22
727,46	1517,54
727,65	1581,03
727,85	1568,74
728,04	1507,30
728,23	1429,48
728,42	1556,46
728,61	1603,56
728,80	1548,26
729,00	1669,09
729,19	1601,51
729,38	1634,28
729,57	1552,36
729,76	1527,78
729,95	1591,27
730,14	1568,74
730,33	1523,69
730,53	1515,50
730,72	1548,26
730,91	1531,88
731,10	1609,70
731,29	1695,72
731,48	1538,02
731,67	1454,06
731,86	1544,17
732,06	1525,74
732,25	1449,96
732,44	1566,70
732,63	1525,74
732,82	1542,12
733,01	1615,85
733,20	1462,25
733,39	1560,55
733,59	1497,07
733,78	1564,65
733,97	1556,46
734,16	1589,22
734,35	1583,08
734,54	1572,84
734,73	1552,36
734,92	1519,59
735,11	1566,70
735,30	1521,64
735,49	1578,98
735,69	1576,94
735,88	1576,94
736,07	1630,18
736,26	1484,78
736,45	1611,75
736,64	1484,78
736,83	1624,04
737,02	1550,31
737,21	1511,40
737,40	1531,88
737,59	1665,00
737,78	1447,91
737,98	1556,46
738,17	1564,65
738,36	1583,08
738,55	1490,92
738,74	1640,42
738,93	1542,12
739,12	1476,59
739,31	1478,63
739,50	1574,89
739,69	1624,04
739,88	1507,30
740,07	1652,71
740,26	1593,32
740,45	1619,94
740,64	1613,80
740,83	1476,59
741,02	1492,97
741,22	1589,22
741,41	1581,03
741,60	1665,00
741,79	1497,07
741,98	1544,17
742,17	1552,36
742,36	1605,61
742,55	1552,36
742,74	1656,81
742,93	1605,61
743,12	1634,28
743,31	1550,31
743,50	1607,66
743,69	1550,31
743,88	1509,35
744,07	1544,17
744,26	1652,71
744,45	1572,84
744,64	1611,75
744,83	1585,13
745,02	1511,40
745,21	1529,83
745,40	1617,90
745,59	1691,62
745,78	1517,54
745,97	1624,04
746,16	1628,14
746,35	1572,84
746,54	1472,49
746,73	1560,55
746,92	1595,37
747,11	1482,73
747,30	1538,02
747,49	1509,35
747,68	1505,26
747,87	1576,94
748,06	1509,35
748,25	1568,74
748,44	1554,41
748,63	1624,04
748,82	1556,46
749,01	1462,25
749,20	1507,30
749,39	1486,83
749,58	1554,41
749,77	1626,09
749,96	1531,88
750,15	1542,12
750,34	1466,35
750,53	1621,99
750,72	1605,61
750,91	1517,54
751,10	1628,14
751,29	1499,11
751,48	1445,87
751,67	1531,88
751,86	1615,85
752,04	1638,38
752,23	1638,38
752,42	1540,07
752,61	1525,74
752,80	1587,18
752,99	1599,46
753,18	1587,18
753,37	1499,11
753,56	1441,77
753,75	1542,12
753,94	1464,30
754,13	1587,18
754,32	1533,93
754,51	1546,22
754,70	1642,47
754,89	1595,37
755,08	1613,80
755,27	1509,35
755,45	1568,74
755,64	1572,84
755,83	1619,94
756,02	1640,42
756,21	1589,22
756,40	1550,31
756,59	1572,84
756,78	1484,78
756,97	1601,51
757,16	1542,12
757,35	1595,37
757,54	1570,79
757,72	1595,37
757,91	1464,30
758,10	1613,80
758,29	1492,97
758,48	1570,79
758,67	1578,98
758,86	1535,98
759,05	1501,16
759,24	1589,22
759,43	1550,31
759,61	1466,35
759,80	1583,08
759,99	1568,74
760,18	1517,54
760,37	1513,45
760,56	1490,92
760,75	1574,89
760,94	1527,78
761,13	1544,17
761,31	1593,32
761,50	1544,17
761,69	1513,45
761,88	1480,68
762,07	1507,30
762,26	1583,08
762,45	1460,20
762,64	1589,22
762,82	1456,11
763,01	1599,46
763,20	1593,32
763,39	1538,02
763,58	1595,37
763,77	1394,67
763,96	1464,30
764,14	1519,59
764,33	1513,45
764,52	1501,16
764,71	1574,89
764,90	1533,93
765,09	1538,02
765,27	1550,31
765,46	1538,02
765,65	1480,68
765,84	1585,13
766,03	1564,65
766,22	1558,50
766,41	1515,50
766,59	1521,64
766,78	1564,65
766,97	1527,78
767,16	1576,94
767,35	1535,98
767,54	1593,32
767,72	1609,70
767,91	1603,56
768,10	1525,74
768,29	1509,35
768,48	1540,07
768,66	1550,31
768,85	1581,03
769,04	1507,30
769,23	1458,15
769,42	1566,70
769,61	1468,39
769,79	1544,17
769,98	1589,22
770,17	1513,45
770,36	1531,88
770,55	1554,41
770,73	1572,84
770,92	1531,88
771,11	1488,87
771,30	1452,01
771,49	1556,46
771,67	1601,51
771,86	1517,54
772,05	1527,78
772,24	1574,89
772,42	1568,74
772,61	1564,65
772,80	1531,88
772,99	1458,15
773,18	1560,55
773,36	1609,70
773,55	1468,39
773,74	1568,74
773,93	1570,79
774,11	1415,15
774,30	1615,85
774,49	1513,45
774,68	1599,46
774,87	1495,02
775,05	1466,35
775,24	1419,24
775,43	1634,28
775,62	1583,08
775,80	1572,84
775,99	1519,59
776,18	1607,66
776,37	1529,83
776,55	1597,42
776,74	1535,98
776,93	1492,97
777,12	1624,04
777,30	1533,93
777,49	1548,26
777,68	1566,70
777,87	1517,54
778,05	1599,46
778,24	1517,54
778,43	1501,16
778,62	1490,92
778,80	1535,98
778,99	1566,70
779,18	1533,93
779,36	1607,66
779,55	1538,02
779,74	1548,26
779,93	1697,77
780,11	1523,69
780,30	1490,92
780,49	1591,27
780,68	1595,37
780,86	1632,23
781,05	1497,07
781,24	1568,74
781,42	1574,89
781,61	1558,50
781,80	1490,92
781,98	1495,02
782,17	1576,94
782,36	1495,02
782,55	1546,22
782,73	1492,97
782,92	1716,20
783,11	1501,16
783,29	1505,26
783,48	1564,65
783,67	1546,22
783,85	1521,64
784,04	1581,03
784,23	1523,69
784,42	1484,78
784,60	1593,32
784,79	1617,90
784,98	1587,18
785,16	1525,74
785,35	1535,98
785,54	1540,07
785,72	1640,42
785,91	1587,18
786,10	1466,35
786,28	1599,46
786,47	1599,46
786,66	1531,88
786,84	1531,88
787,03	1597,42
787,22	1558,50
787,40	1490,92
787,59	1554,41
787,78	1613,80
787,96	1507,30
788,15	1540,07
788,34	1470,44
788,52	1605,61
788,71	1513,45
788,89	1517,54
789,08	1511,40
789,27	1665,00
789,45	1615,85
789,64	1533,93
789,83	1507,30
790,01	1519,59
790,20	1595,37
790,39	1525,74
790,57	1511,40
790,76	1488,87
790,95	1497,07
791,13	1562,60
791,32	1544,17
791,50	1621,99
791,69	1574,89
791,88	1562,60
792,06	1578,98
792,25	1615,85
792,43	1445,87
792,62	1624,04
792,81	1527,78
792,99	1484,78
793,18	1576,94
793,37	1562,60
793,55	1515,50
793,74	1538,02
793,92	1556,46
794,11	1544,17
794,30	1503,21
794,48	1572,84
794,67	1556,46
794,85	1435,63
795,04	1568,74
795,23	1495,02
795,41	1550,31
795,60	1482,73
795,78	1552,36
795,97	1609,70
796,15	1578,98
796,34	1574,89
796,53	1513,45
796,71	1578,98
796,90	1568,74
797,08	1509,35
797,27	1617,90
797,46	1564,65
797,64	1480,68
797,83	1593,32
798,01	1511,40
798,20	1583,08
798,38	1515,50
798,57	1478,63
798,76	1482,73
798,94	1490,92
799,13	1607,66
799,31	1550,31
799,50	1462,25
799,68	1492,97
799,87	1456,11
800,05	1578,98
800,24	1552,36
800,43	1456,11
800,61	1609,70
800,80	1548,26
800,98	1468,39
801,17	1490,92
801,35	1560,55
801,54	1525,74
801,72	1578,98
801,91	1517,54
802,09	1521,64
802,28	1503,21
802,46	1492,97
802,65	1546,22
802,84	1634,28
803,02	1521,64
803,21	1562,60
803,39	1525,74
803,58	1570,79
803,76	1605,61
803,95	1515,50
804,13	1531,88
804,32	1583,08
804,50	1624,04
804,69	1638,38
804,87	1445,87
805,06	1538,02
805,24	1607,66
805,43	1574,89
805,61	1503,21
805,80	1542,12
805,98	1589,22
806,17	1556,46
806,35	1441,77
806,54	1517,54
806,72	1548,26
806,91	1540,07
807,09	1501,16
807,28	1583,08
807,46	1521,64
807,65	1591,27
807,83	1519,59
808,02	1511,40
808,20	1562,60
808,39	1519,59
808,57	1552,36
808,76	1595,37
808,94	1591,27
809,13	1554,41
809,31	1560,55
809,49	1609,70
809,68	1499,11
809,86	1548,26
810,05	1499,11
810,23	1601,51
810,42	1597,42
810,60	1517,54
810,79	1527,78
810,97	1499,11
811,16	1482,73
811,34	1562,60
811,53	1492,97
811,71	1507,30
811,89	1535,98
812,08	1538,02
812,26	1507,30
812,45	1535,98
812,63	1468,39
812,82	1597,42
813,00	1449,96
813,19	1507,30
813,37	1581,03
813,55	1449,96
813,74	1478,63
813,92	1540,07
814,11	1540,07
814,29	1384,43
814,48	1540,07
814,66	1593,32
814,84	1497,07
815,03	1562,60
815,21	1652,71
815,40	1572,84
815,58	1503,21
815,77	1615,85
815,95	1452,01
816,13	1486,83
816,32	1556,46
816,50	1574,89
816,69	1544,17
816,87	1495,02
817,05	1544,17
817,24	1638,38
817,42	1517,54
817,61	1474,54
817,79	1535,98
817,97	1527,78
818,16	1474,54
818,34	1617,90
818,53	1566,70
818,71	1574,89
818,89	1513,45
819,08	1603,56
819,26	1560,55
819,45	1585,13
819,63	1558,50
819,81	1554,41
820,00	1689,57
820,18	1435,63
820,36	1628,14
820,55	1523,69
820,73	1464,30
820,92	1497,07
821,10	1587,18
821,28	1499,11
821,47	1572,84
821,65	1587,18
821,83	1703,91
822,02	1445,87
822,20	1581,03
822,39	1482,73
822,57	1507,30
822,75	1472,49
822,94	1548,26
823,12	1484,78
823,30	1392,62
823,49	1605,61
823,67	1513,45
823,85	1558,50
824,04	1484,78
824,22	1550,31
824,40	1593,32
824,59	1621,99
824,77	1585,13
824,95	1562,60
825,14	1585,13
825,32	1628,14
825,50	1540,07
825,69	1523,69
825,87	1576,94
826,05	1499,11
826,24	1570,79
826,42	1628,14
826,60	1585,13
826,79	1572,84
826,97	1566,70
827,15	1560,55
827,34	1495,02
827,52	1540,07
827,70	1495,02
827,89	1476,59
828,07	1484,78
828,25	1505,26
828,44	1581,03
828,62	1560,55
828,80	1599,46
828,98	1581,03
829,17	1445,87
829,35	1556,46
829,53	1466,35
829,72	1456,11
829,90	1488,87
830,08	1478,63
830,27	1605,61
830,45	1667,05
830,63	1560,55
830,81	1511,40
831,00	1599,46
831,18	1486,83
831,36	1574,89
831,55	1521,64
831,73	1554,41
831,91	1456,11
832,09	1630,18
832,28	1564,65
832,46	1533,93
832,64	1507,30
832,82	1531,88
833,01	1591,27
833,19	1478,63
833,37	1417,19
833,55	1531,88
833,74	1636,33
833,92	1456,11
834,10	1533,93
834,29	1554,41
834,47	1521,64
834,65	1527,78
834,83	1396,71
835,02	1474,54
835,20	1486,83
835,38	1554,41
835,56	1527,78
835,75	1533,93
835,93	1554,41
836,11	1515,50
836,29	1503,21
836,47	1619,94
836,66	1484,78
836,84	1617,90
837,02	1505,26
837,20	1578,98
837,39	1482,73
837,57	1452,01
837,75	1497,07
837,93	1556,46
838,12	1519,59
838,30	1558,50
838,48	1486,83
838,66	1523,69
838,84	1560,55
839,03	1621,99
839,21	1490,92
839,39	1507,30
839,57	1562,60
839,75	1605,61
839,94	1533,93
840,12	1454,06
840,30	1499,11
840,48	1525,74
840,66	1505,26
840,85	1564,65
841,03	1521,64
841,21	1542,12
841,39	1529,83
841,57	1562,60
841,76	1515,50
841,94	1652,71
842,12	1474,54
842,30	1497,07
842,48	1505,26
842,67	1476,59
842,85	1470,44
843,03	1546,22
843,21	1574,89
843,39	1566,70
843,57	1509,35
843,76	1437,67
843,94	1507,30
844,12	1587,18
844,30	1460,20
844,48	1503,21
844,66	1523,69
844,85	1468,39
845,03	1603,56
845,21	1476,59
845,39	1644,52
845,57	1529,83
845,75	1519,59
845,94	1630,18
846,12	1519,59
846,30	1568,74
846,48	1476,59
846,66	1609,70
846,84	1519,59
847,02	1605,61
847,21	1462,25
847,39	1460,20
847,57	1540,07
847,75	1519,59
847,93	1499,11
848,11	1542,12
848,29	1495,02
848,48	1472,49
848,66	1533,93
848,84	1593,32
849,02	1499,11
849,20	1505,26
849,38	1566,70
849,56	1505,26
849,74	1583,08
849,93	1578,98
850,11	1572,84
850,29	1521,64
850,47	1560,55
850,65	1490,92
850,83	1497,07
851,01	1550,31
851,19	1642,47
851,37	1505,26
851,56	1480,68
851,74	1558,50
851,92	1495,02
852,10	1517,54
852,28	1515,50
852,46	1501,16
852,64	1570,79
852,82	1509,35
853,00	1531,88
853,18	1566,70
853,37	1599,46
853,55	1533,93
853,73	1605,61
853,91	1529,83
854,09	1560,55
854,27	1525,74
854,45	1578,98
854,63	1525,74
854,81	1501,16
854,99	1556,46
855,17	1474,54
855,35	1505,26
855,53	1544,17
855,72	1531,88
855,90	1587,18
856,08	1597,42
856,26	1464,30
856,44	1624,04
856,62	1490,92
856,80	1486,83
856,98	1474,54
857,16	1497,07
857,34	1531,88
857,52	1589,22
857,70	1548,26
857,88	1523,69
858,06	1574,89
858,24	1503,21
858,42	1611,75
858,60	1564,65
858,78	1507,30
858,96	1511,40
859,15	1468,39
859,33	1468,39
859,51	1509,35
859,69	1542,12
859,87	1495,02
860,05	1499,11
860,23	1562,60
860,41	1497,07
860,59	1548,26
860,77	1611,75
860,95	1503,21
861,13	1533,93
861,31	1517,54
861,49	1511,40
861,67	1556,46
861,85	1554,41
862,03	1583,08
862,21	1535,98
862,39	1466,35
862,57	1589,22
862,75	1484,78
862,93	1589,22
863,11	1578,98
863,29	1466,35
863,47	1593,32
863,65	1589,22
863,83	1454,06
864,01	1470,44
864,19	1507,30
864,37	1484,78
864,55	1445,87
864,73	1495,02
864,91	1538,02
865,09	1646,57
865,27	1484,78
865,45	1521,64
865,63	1540,07
865,81	1515,50
865,99	1513,45
866,17	1603,56
866,35	1495,02
866,53	1581,03
866,71	1495,02
866,89	1523,69
867,07	1546,22
867,24	1509,35
867,42	1613,80
867,60	1597,42
867,78	1529,83
867,96	1497,07
868,14	1581,03
868,32	1640,42
868,50	1601,51
868,68	1476,59
868,86	1533,93
869,04	1621,99
869,22	1535,98
869,40	1478,63
869,58	1511,40
869,76	1538,02
869,94	1445,87
870,12	1495,02
870,30	1538,02
870,48	1568,74
870,66	1558,50
870,83	1542,12
871,01	1546,22
871,19	1466,35
871,37	1548,26
871,55	1476,59
871,73	1456,11
871,91	1558,50
872,09	1566,70
872,27	1462,25
872,45	1519,59
872,63	1452,01
872,81	1449,96
872,98	1611,75
873,16	1556,46
873,34	1560,55
873,52	1503,21
873,70	1484,78
873,88	1517,54
874,06	1458,15
874,24	1527,78
874,42	1458,15
874,60	1515,50
874,78	1474,54
874,95	1535,98
875,13	1497,07
875,31	1540,07
875,49	1585,13
875,67	1542,12
875,85	1519,59
876,03	1544,17
876,21	1554,41
876,39	1517,54
876,56	1538,02
876,74	1441,77
876,92	1503,21
877,10	1542,12
877,28	1501,16
877,46	1564,65
877,64	1570,79
877,82	1597,42
877,99	1531,88
878,17	1560,55
878,35	1554,41
878,53	1689,57
878,71	1566,70
878,89	1583,08
879,07	1599,46
879,24	1583,08
879,42	1605,61
879,60	1509,35
879,78	1607,66
879,96	1519,59
880,14	1558,50
880,32	1503,21
880,49	1542,12
880,67	1593,32
880,85	1503,21
881,03	1480,68
881,21	1566,70
881,39	1523,69
881,56	1503,21
881,74	1527,78
881,92	1429,48
882,10	1515,50
882,28	1587,18
882,46	1572,84
882,63	1466,35
882,81	1458,15
882,99	1533,93
883,17	1466,35
883,35	1607,66
883,52	1540,07
883,70	1554,41
883,88	1488,87
884,06	1527,78
884,24	1574,89
884,42	1587,18
884,59	1583,08
884,77	1589,22
884,95	1564,65
885,13	1535,98
885,31	1454,06
885,48	1525,74
885,66	1654,76
885,84	1583,08
886,02	1503,21
886,20	1613,80
886,37	1544,17
886,55	1572,84
886,73	1550,31
886,91	1509,35
887,08	1572,84
887,26	1544,17
887,44	1632,23
887,62	1509,35
887,80	1542,12
887,97	1550,31
888,15	1591,27
888,33	1509,35
888,51	1581,03
888,68	1542,12
888,86	1550,31
889,04	1523,69
889,22	1546,22
889,40	1501,16
889,57	1533,93
889,75	1552,36
889,93	1525,74
890,11	1540,07
890,28	1478,63
890,46	1507,30
890,64	1552,36
890,82	1595,37
890,99	1570,79
891,17	1488,87
891,35	1492,97
891,53	1558,50
891,70	1468,39
891,88	1503,21
892,06	1550,31
892,24	1546,22
892,41	1398,76
892,59	1474,54
892,77	1478,63
892,94	1509,35
893,12	1560,55
893,30	1519,59
893,48	1540,07
893,65	1607,66
893,83	1521,64
894,01	1552,36
894,19	1509,35
894,36	1589,22
894,54	1464,30
894,72	1550,31
894,89	1578,98
895,07	1505,26
895,25	1554,41
895,43	1480,68
895,60	1607,66
895,78	1564,65
895,96	1529,83
896,13	1572,84
896,31	1619,94
896,49	1517,54
896,66	1544,17
896,84	1617,90
897,02	1566,70
897,20	1554,41
897,37	1478,63
897,55	1492,97
897,73	1628,14
897,90	1566,70
898,08	1529,83
898,26	1574,89
898,43	1521,64
898,61	1548,26
898,79	1548,26
898,96	1521,64
899,14	1533,93
899,32	1576,94
899,49	1517,54
899,67	1585,13
899,85	1570,79
900,02	1572,84
900,20	1587,18
900,38	1531,88
900,55	1560,55
900,73	1654,76
900,91	1435,63
901,08	1556,46
901,26	1560,55
901,44	1490,92
901,61	1550,31
901,79	1540,07
901,97	1591,27
902,14	1519,59
902,32	1605,61
902,50	1538,02
902,67	1468,39
902,85	1564,65
903,02	1525,74
903,20	1523,69
903,38	1523,69
903,55	1501,16
903,73	1521,64
903,91	1568,74
904,08	1515,50
904,26	1589,22
904,44	1740,77
904,61	1452,01
904,79	1540,07
904,96	1503,21
905,14	1570,79
905,32	1484,78
905,49	1466,35
905,67	1433,58
905,84	1505,26
906,02	1583,08
906,20	1562,60
906,37	1599,46
906,55	1503,21
906,73	1501,16
906,90	1583,08
907,08	1562,60
907,25	1578,98
907,43	1599,46
907,61	1482,73
907,78	1529,83
907,96	1476,59
908,13	1566,70
908,31	1689,57
908,48	1460,20
908,66	1472,49
908,84	1556,46
909,01	1570,79
909,19	1628,14
909,36	1548,26
909,54	1484,78
909,72	1533,93
909,89	1476,59
910,07	1425,39
910,24	1531,88
910,42	1593,32
910,59	1505,26
910,77	1597,42
910,95	1458,15
911,12	1476,59
911,30	1554,41
911,47	1531,88
911,65	1548,26
911,82	1533,93
912,00	1574,89
912,17	1464,30
912,35	1570,79
912,53	1572,84
912,70	1572,84
912,88	1474,54
913,05	1540,07
913,23	1531,88
913,40	1605,61
913,58	1511,40
913,75	1523,69
913,93	1449,96
914,10	1550,31
914,28	1529,83
914,46	1472,49
914,63	1544,17
914,81	1599,46
914,98	1482,73
915,16	1468,39
915,33	1531,88
915,51	1589,22
915,68	1601,51
915,86	1611,75
916,03	1456,11
916,21	1462,25
916,38	1546,22
916,56	1533,93
916,73	1589,22
916,91	1501,16
917,08	1456,11
917,26	1619,94
917,43	1499,11
917,61	1564,65
917,78	1581,03
917,96	1521,64
918,13	1527,78
918,31	1472,49
918,48	1515,50
918,66	1499,11
918,83	1585,13
919,01	1492,97
919,18	1566,70
919,36	1417,19
919,53	1540,07
919,71	1644,52
919,88	1599,46
920,06	1488,87
920,23	1492,97
920,41	1452,01
920,58	1449,96
920,76	1480,68
920,93	1599,46
921,11	1507,30
921,28	1478,63
921,45	1621,99
921,63	1638,38
921,80	1490,92
921,98	1542,12
922,15	1482,73
922,33	1523,69
922,50	1544,17
922,68	1542,12
922,85	1523,69
923,03	1474,54
923,20	1597,42
923,38	1515,50
923,55	1576,94
923,72	1552,36
923,90	1656,81
924,07	1505,26
924,25	1587,18
924,42	1644,52
924,60	1564,65
924,77	1488,87
924,95	1572,84
925,12	1538,02
925,29	1671,14
925,47	1507,30
925,64	1433,58
925,82	1488,87
925,99	1466,35
926,17	1611,75
926,34	1548,26
926,51	1595,37
926,69	1589,22
926,86	1585,13
927,04	1548,26
927,21	1615,85
927,38	1425,39
927,56	1505,26
927,73	1533,93
927,91	1470,44
928,08	1718,25
928,25	1525,74
928,43	1583,08
928,60	1490,92
928,78	1538,02
928,95	1540,07
929,12	1593,32
929,30	1505,26
929,47	1542,12
929,65	1486,83
929,82	1445,87
929,99	1488,87
930,17	1441,77
930,34	1597,42
930,52	1515,50
930,69	1429,48
930,86	1554,41
931,04	1531,88
931,21	1427,43
931,38	1484,78
931,56	1529,83
931,73	1685,48
931,91	1495,02
932,08	1531,88
932,25	1632,23
932,43	1544,17
932,60	1581,03
932,77	1443,82
932,95	1531,88
933,12	1478,63
933,29	1415,15
933,47	1642,47
933,64	1499,11
933,82	1521,64
933,99	1607,66
934,16	1529,83
934,34	1548,26
934,51	1589,22
934,68	1597,42
934,86	1570,79
935,03	1476,59
935,20	1472,49
935,38	1486,83
935,55	1548,26
935,72	1523,69
935,90	1546,22
936,07	1548,26
936,24	1456,11
936,42	1613,80
936,59	1513,45
936,76	1601,51
936,94	1464,30
937,11	1583,08
937,28	1560,55
937,46	1556,46
937,63	1591,27
937,80	1511,40
937,97	1617,90
938,15	1556,46
938,32	1501,16
938,49	1574,89
938,67	1556,46
938,84	1515,50
939,01	1542,12
939,19	1478,63
939,36	1583,08
939,53	1515,50
939,70	1517,54
939,88	1544,17
940,05	1611,75
940,22	1562,60
940,40	1613,80
940,57	1599,46
940,74	1490,92
940,92	1566,70
941,09	1525,74
941,26	1468,39
941,43	1568,74
941,61	1486,83
941,78	1538,02
941,95	1601,51
942,12	1542,12
942,30	1497,07
942,47	1589,22
942,64	1474,54
942,82	1589,22
942,99	1656,81
943,16	1503,21
943,33	1486,83
943,51	1474,54
943,68	1570,79
943,85	1474,54
944,02	1593,32
944,20	1538,02
944,37	1495,02
944,54	1589,22
944,71	1546,22
944,89	1568,74
945,06	1484,78
945,23	1472,49
945,40	1548,26
945,58	1542,12
945,75	1488,87
945,92	1583,08
946,09	1550,31
946,27	1560,55
946,44	1519,59
946,61	1626,09
946,78	1544,17
946,95	1521,64
947,13	1515,50
947,30	1554,41
947,47	1427,43
947,64	1523,69
947,82	1458,15
947,99	1499,11
948,16	1531,88
948,33	1581,03
948,50	1443,82
948,68	1558,50
948,85	1509,35
949,02	1630,18
949,19	1535,98
949,36	1581,03
949,54	1515,50
949,71	1619,94
949,88	1406,95
950,05	1595,37
950,22	1589,22
950,40	1621,99
950,57	1517,54
950,74	1646,57
950,91	1593,32
951,08	1505,26
951,26	1552,36
951,43	1499,11
951,60	1470,44
951,77	1544,17
951,94	1638,38
952,11	1597,42
952,29	1552,36
952,46	1517,54
952,63	1638,38
952,80	1562,60
952,97	1521,64
953,15	1538,02
953,32	1505,26
953,49	1478,63
953,66	1546,22
953,83	1460,20
954,00	1476,59
954,17	1552,36
954,35	1722,34
954,52	1488,87
954,69	1626,09
954,86	1669,09
955,03	1535,98
955,20	1527,78
955,38	1460,20
955,55	1533,93
955,72	1533,93
955,89	1486,83
956,06	1503,21
956,23	1527,78
956,40	1574,89
956,58	1497,07
956,75	1529,83
956,92	1556,46
957,09	1447,91
957,26	1509,35
957,43	1535,98
957,60	1488,87
957,77	1560,55
957,95	1613,80
958,12	1490,92
958,29	1515,50
958,46	1562,60
958,63	1497,07
958,80	1583,08
958,97	1581,03
959,14	1441,77
959,31	1507,30
959,49	1527,78
959,66	1542,12
959,83	1482,73
960,00	1458,15
960,17	1605,61
960,34	1576,94
960,51	1499,11
960,68	1527,78
960,85	1617,90
961,02	1456,11
961,20	1548,26
961,37	1503,21
961,54	1591,27
961,71	1540,07
961,88	1560,55
962,05	1531,88
962,22	1499,11
962,39	1527,78
962,56	1511,40
962,73	1574,89
962,90	1495,02
963,07	1574,89
963,24	1581,03
963,42	1474,54
963,59	1615,85
963,76	1634,28
963,93	1621,99
964,10	1544,17
964,27	1525,74
964,44	1630,18
964,61	1607,66
964,78	1511,40
964,95	1544,17
965,12	1486,83
965,29	1525,74
965,46	1533,93
965,63	1662,95
965,80	1583,08
965,97	1486,83
966,14	1517,54
966,31	1574,89
966,48	1552,36
966,66	1538,02
966,83	1578,98
967,00	1599,46
967,17	1578,98
967,34	1560,55
967,51	1662,95
967,68	1562,60
967,85	1492,97
968,02	1710,05
968,19	1437,67
968,36	1548,26
968,53	1507,30
968,70	1499,11
968,87	1535,98
969,04	1585,13
969,21	1517,54
969,38	1685,48
969,55	1435,63
969,72	1509,35
969,89	1611,75
970,06	1474,54
970,23	1454,06
970,40	1576,94
970,57	1525,74
970,74	1499,11
970,91	1554,41
971,08	1572,84
971,25	1572,84
971,42	1570,79
971,59	1538,02
971,76	1583,08
971,93	1550,31
972,10	1490,92
972,27	1505,26
972,44	1480,68
972,61	1546,22
972,78	1578,98
972,95	1517,54
973,12	1593,32
973,29	1511,40
973,46	1535,98
973,63	1583,08
973,80	1574,89
973,97	1478,63
974,14	1544,17
974,30	1501,16
974,47	1611,75
974,64	1591,27
974,81	1533,93
974,98	1621,99
975,15	1613,80
975,32	1626,09
975,49	1523,69
975,66	1507,30
975,83	1599,46
976,00	1525,74
976,17	1478,63
976,34	1515,50
976,51	1544,17
976,68	1480,68
976,85	1570,79
977,02	1581,03
977,19	1517,54
977,36	1488,87
977,52	1538,02
977,69	1568,74
977,86	1552,36
978,03	1468,39
978,20	1568,74
978,37	1564,65
978,54	1603,56
978,71	1589,22
978,88	1624,04
979,05	1497,07
979,22	1570,79
979,39	1572,84
979,56	1546,22
979,72	1499,11
979,89	1607,66
980,06	1568,74
980,23	1624,04
980,40	1449,96
980,57	1554,41
980,74	1581,03
980,91	1490,92
981,08	1492,97
981,25	1544,17
981,41	1540,07
981,58	1476,59
981,75	1470,44
981,92	1482,73
982,09	1552,36
982,26	1517,54
982,43	1433,58
982,60	1576,94
982,77	1499,11
982,93	1538,02
983,10	1492,97
983,27	1562,60
983,44	1480,68
983,61	1644,52
983,78	1525,74
983,95	1486,83
984,11	1511,40
984,28	1589,22
984,45	1556,46
984,62	1490,92
984,79	1519,59
984,96	1605,61
985,13	1521,64
985,30	1607,66
985,46	1474,54
985,63	1546,22
985,80	1572,84
985,97	1513,45
986,14	1443,82
986,31	1560,55
986,47	1570,79
986,64	1427,43
986,81	1478,63
986,98	1544,17
987,15	1560,55
987,32	1540,07
987,48	1521,64
987,65	1470,44
987,82	1552,36
987,99	1542,12
988,16	1988,58
988,33	1730,53
988,49	1581,03
988,66	1605,61
988,83	1476,59
989,00	1527,78
989,17	1515,50
989,34	1589,22
989,50	1564,65
989,67	1558,50
989,84	1501,16
990,01	1517,54
990,18	1546,22
990,34	1558,50
990,51	1468,39
990,68	1548,26
990,85	1710,05
991,02	1437,67
991,18	1476,59
991,35	1490,92
991,52	1572,84
991,69	1521,64
991,86	1533,93
992,02	1499,11
992,19	1497,07
992,36	1531,88
992,53	1607,66
992,69	1472,49
992,86	1488,87
993,03	1517,54
993,20	1423,34
993,37	1630,18
993,53	1591,27
993,70	1566,70
993,87	1531,88
994,04	1562,60
994,20	1476,59
994,37	1482,73
994,54	1480,68
994,71	1599,46
994,87	1564,65
995,04	1597,42
995,21	1482,73
995,38	1597,42
995,55	1437,67
995,71	1495,02
995,88	1599,46
996,05	1511,40
996,22	1501,16
996,38	1533,93
996,55	1445,87
996,72	1546,22
996,88	1609,70
997,05	2449,37
997,22	1558,50
997,39	1511,40
997,55	1564,65
997,72	1538,02
997,89	1495,02
998,06	1495,02
998,22	1527,78
998,39	1503,21
998,56	1535,98
998,73	1497,07
998,89	1560,55
999,06	1523,69
999,23	1576,94
999,39	1507,30
999,56	1605,61
999,73	1542,12
999,90	1415,15
1000,06	1568,74
1000,23	1488,87
1000,40	1495,02
1000,56	1589,22
1000,73	1531,88
1000,90	1533,93
1001,06	1445,87
1001,23	1638,38
1001,40	1601,51
1001,57	1511,40
1001,73	1542,12
1001,90	1454,06
1002,07	1445,87
1002,23	1468,39
1002,40	1540,07
1002,57	1538,02
1002,73	1511,40
1002,90	1445,87
1003,07	1562,60
1003,23	1529,83
1003,40	1492,97
1003,57	1503,21
1003,73	1572,84
1003,90	1529,83
1004,07	1490,92
1004,23	1527,78
1004,40	1527,78
1004,57	1525,74
1004,73	1456,11
1004,90	1474,54
1005,07	1511,40
1005,23	1533,93
1005,40	1474,54
1005,57	1523,69
1005,73	1509,35
1005,90	1431,53
1006,07	1574,89
1006,23	1562,60
1006,40	1550,31
1006,57	1535,98
1006,73	1542,12
1006,90	1497,07
1007,06	1544,17
1007,23	1398,76
1007,40	1503,21
1007,56	1546,22
1007,73	1585,13
1007,90	1550,31
1008,06	1490,92
1008,23	1470,44
1008,40	1535,98
1008,56	1503,21
1008,73	1523,69
1008,89	1548,26
1009,06	1710,05
1009,23	1507,30
1009,39	1517,54
1009,56	1490,92
1009,72	1617,90
1009,89	1560,55
1010,06	1495,02
1010,22	1566,70
1010,39	1517,54
1010,55	1540,07
1010,72	1609,70
1010,89	1523,69
1011,05	1507,30
1011,22	1480,68
1011,38	1533,93
1011,55	1515,50
1011,72	1482,73
1011,88	1523,69
1012,05	1566,70
1012,21	1546,22
1012,38	1484,78
1012,55	1611,75
1012,71	1492,97
1012,88	1509,35
1013,04	1523,69
1013,21	1486,83
1013,37	1607,66
1013,54	1507,30
1013,71	1472,49
1013,87	1535,98
1014,04	1574,89
1014,20	1613,80
1014,37	1544,17
1014,53	1552,36
1014,70	1527,78
1014,87	1527,78
1015,03	1658,85
1015,20	1535,98
1015,36	1540,07
1015,53	1538,02
1015,69	1566,70
1015,86	1503,21
1016,02	1560,55
1016,19	1617,90
1016,36	1556,46
1016,52	1603,56
1016,69	1531,88
1016,85	1583,08
1017,02	1550,31
1017,18	1482,73
1017,35	1499,11
1017,51	1503,21
1017,68	1570,79
1017,84	1513,45
1018,01	1456,11
1018,17	1587,18
1018,34	1615,85
1018,50	1447,91
1018,67	1509,35
1018,84	1603,56
1019,00	1558,50
1019,17	1609,70
1019,33	1525,74
1019,50	1544,17
1019,66	1636,33
1019,83	1482,73
1019,99	1632,23
1020,16	1433,58
1020,32	1538,02
1020,49	1640,42
1020,65	1583,08
1020,82	1630,18
1020,98	1499,11
1021,15	1538,02
1021,31	1507,30
1021,48	1548,26
1021,64	1554,41
1021,81	1599,46
1021,97	1558,50
1022,14	1546,22
1022,30	1533,93
1022,47	1542,12
1022,63	1583,08
1022,79	1603,56
1022,96	1546,22
1023,12	1449,96
1023,29	1568,74
1023,45	1642,47
1023,62	1585,13
1023,78	1591,27
1023,95	1507,30
1024,11	1558,50
1024,28	1488,87
1024,44	1490,92
1024,61	1472,49
1024,77	1513,45
1024,94	1531,88
1025,10	1548,26
1025,26	1486,83
1025,43	1597,42
1025,59	1517,54
1025,76	1576,94
1025,92	1499,11
1026,09	1511,40
1026,25	1540,07
1026,42	1497,07
1026,58	1519,59
1026,74	1558,50
1026,91	1517,54
1027,07	1554,41
1027,24	1656,81
1027,40	1523,69
1027,57	1558,50
1027,73	1460,20
1027,90	1572,84
1028,06	1523,69
1028,22	1535,98
1028,39	1474,54
1028,55	1603,56
1028,72	1599,46
1028,88	1714,15
1029,04	1478,63
1029,21	1574,89
1029,37	1521,64
1029,54	1593,32
1029,70	1652,71
1029,87	1470,44
1030,03	1435,63
1030,19	1583,08
1030,36	1525,74
1030,52	1542,12
1030,69	1478,63
1030,85	1519,59
1031,01	1595,37
1031,18	1595,37
1031,34	1581,03
1031,50	1505,26
1031,67	1544,17
1031,83	1476,59
1032,00	1585,13
1032,16	1531,88
1032,32	1533,93
1032,49	1619,94
1032,65	1619,94
1032,82	1638,38
1032,98	1523,69
1033,14	1529,83
1033,31	1581,03
1033,47	1589,22
1033,63	1472,49
1033,80	1488,87
1033,96	1529,83
1034,13	1550,31
1034,29	1540,07
1034,45	1558,50
1034,62	1472,49
1034,78	1578,98
1034,94	1499,11
1035,11	1605,61
1035,27	1480,68
1035,43	1597,42
1035,60	1583,08
1035,76	1495,02
1035,92	1535,98
1036,09	1529,83
1036,25	1511,40
1036,41	1546,22
1036,58	1660,90
1036,74	1525,74
1036,90	1466,35
1037,07	1513,45
1037,23	1550,31
1037,39	1626,09
1037,56	1447,91
1037,72	1503,21
1037,88	1574,89
1038,05	1476,59
1038,21	1656,81
1038,37	1587,18
1038,54	1562,60
1038,70	1691,62
1038,86	1583,08
1039,03	1640,42
1039,19	1519,59
1039,35	1476,59
1039,52	1495,02
1039,68	1535,98
1039,84	1488,87
1040,00	1511,40
1040,17	1505,26
1040,33	1470,44
1040,49	1468,39
1040,66	1564,65
1040,82	1521,64
1040,98	1529,83
1041,15	1523,69
1041,31	1521,64
1041,47	1505,26
1041,63	1421,29
1041,80	1540,07
1041,96	1636,33
1042,12	1466,35
1042,29	1552,36
1042,45	1650,66
1042,61	1482,73
1042,77	1607,66
1042,94	1628,14
1043,10	1658,85
1043,26	1519,59
1043,42	1519,59
1043,59	1617,90
1043,75	1572,84
1043,91	1454,06
1044,07	1523,69
1044,24	1523,69
1044,40	1558,50
>>>>>End Processed Spectral Data<<<<<
