SpectraSuite Data File
++++++++++++++++++++++++++++++++++++
Date: Wed Sep 25 10:27:04 GMT-03:00 2024
User: Lavfis
Dark Spectrum Present: No
Reference Spectrum Present: No
Number of Sampled Component Spectra: 1
Spectrometers: USB4F02573
Integration Time (usec): 100000 (USB4F02573)
Spectra Averaged: 1 (USB4F02573)
Boxcar Smoothing: 0 (USB4F02573)
Correct for Electrical Dark: No (USB4F02573)
Strobe/Lamp Enabled: No (USB4F02573)
Correct for Detector Non-linearity: No (USB4F02573)
Correct for Stray Light: No (USB4F02573)
Number of Pixels in Processed Spectrum: 3648
>>>>>Begin Processed Spectral Data<<<<<
345,22	1376,24
345,44	1376,24
345,66	1376,24
345,88	1359,85
346,10	1310,70
346,32	1583,08
346,54	1449,96
346,75	1460,20
346,97	1460,20
347,19	1511,40
347,41	1509,35
347,63	1556,46
347,85	1507,30
348,07	1585,13
348,29	1613,80
348,51	1542,12
348,73	1546,22
348,95	1458,15
349,16	1464,30
349,38	1476,59
349,60	1525,74
349,82	1585,13
350,04	1468,39
350,26	1603,56
350,48	1621,99
350,70	1560,55
350,92	1525,74
351,14	1552,36
351,35	1605,61
351,57	1552,36
351,79	1570,79
352,01	1454,06
352,23	1560,55
352,45	1576,94
352,67	1546,22
352,89	1538,02
353,10	1552,36
353,32	1482,73
353,54	1593,32
353,76	1597,42
353,98	1587,18
354,20	1447,91
354,42	1542,12
354,64	1552,36
354,85	1624,04
355,07	1533,93
355,29	1519,59
355,51	1515,50
355,73	1501,16
355,95	1501,16
356,17	1578,98
356,38	1513,45
356,60	1560,55
356,82	1576,94
357,04	1515,50
357,26	1511,40
357,48	1636,33
357,69	1558,50
357,91	1525,74
358,13	1523,69
358,35	1540,07
358,57	1576,94
358,79	1667,05
359,01	1568,74
359,22	1519,59
359,44	1626,09
359,66	1593,32
359,88	1470,44
360,10	1517,54
360,32	1507,30
360,53	1564,65
360,75	1583,08
360,97	1656,81
361,19	1601,51
361,41	1648,61
361,62	1607,66
361,84	1585,13
362,06	1525,74
362,28	1507,30
362,50	1619,94
362,72	1595,37
362,93	1564,65
363,15	1497,07
363,37	1542,12
363,59	1564,65
363,81	1503,21
364,02	1667,05
364,24	1484,78
364,46	1589,22
364,68	1523,69
364,90	1599,46
365,11	1552,36
365,33	1589,22
365,55	1511,40
365,77	1544,17
365,99	1533,93
366,20	1683,43
366,42	1574,89
366,64	1499,11
366,86	1599,46
367,07	1597,42
367,29	1515,50
367,51	1521,64
367,73	1525,74
367,95	1597,42
368,16	1591,27
368,38	1640,42
368,60	1554,41
368,82	1609,70
369,03	1599,46
369,25	1607,66
369,47	1523,69
369,69	1480,68
369,91	1652,71
370,12	1478,63
370,34	1495,02
370,56	1533,93
370,78	1531,88
370,99	1652,71
371,21	1570,79
371,43	1515,50
371,65	1535,98
371,86	1548,26
372,08	1554,41
372,30	1523,69
372,52	1572,84
372,73	1556,46
372,95	1574,89
373,17	1558,50
373,39	1523,69
373,60	1507,30
373,82	1525,74
374,04	1572,84
374,26	1540,07
374,47	1540,07
374,69	1566,70
374,91	1599,46
375,12	1562,60
375,34	1544,17
375,56	1570,79
375,78	1585,13
375,99	1507,30
376,21	1603,56
376,43	1544,17
376,65	1570,79
376,86	1605,61
377,08	1490,92
377,30	1601,51
377,51	1585,13
377,73	1576,94
377,95	1519,59
378,17	1548,26
378,38	1523,69
378,60	1576,94
378,82	1648,61
379,03	1634,28
379,25	1564,65
379,47	1646,57
379,68	1501,16
379,90	1490,92
380,12	1574,89
380,34	1523,69
380,55	1638,38
380,77	1550,31
380,99	1589,22
381,20	1595,37
381,42	1634,28
381,64	1550,31
381,85	1572,84
382,07	1658,85
382,29	1636,33
382,50	1513,45
382,72	1568,74
382,94	1589,22
383,15	1621,99
383,37	1576,94
383,59	1525,74
383,80	1507,30
384,02	1560,55
384,24	1566,70
384,45	1626,09
384,67	1587,18
384,89	1492,97
385,10	1566,70
385,32	1599,46
385,54	1535,98
385,75	1554,41
385,97	1679,33
386,19	1624,04
386,40	1656,81
386,62	1570,79
386,84	1574,89
387,05	1478,63
387,27	1507,30
387,49	1581,03
387,70	1597,42
387,92	1628,14
388,14	1470,44
388,35	1529,83
388,57	1521,64
388,79	1607,66
389,00	1490,92
389,22	1441,77
389,43	1558,50
389,65	1560,55
389,87	1583,08
390,08	1497,07
390,30	1626,09
390,52	1697,77
390,73	1560,55
390,95	1562,60
391,17	1544,17
391,38	1599,46
391,60	1607,66
391,81	1630,18
392,03	1540,07
392,25	1501,16
392,46	1482,73
392,68	1642,47
392,89	1564,65
393,11	1529,83
393,33	1568,74
393,54	1574,89
393,76	1621,99
393,98	1581,03
394,19	1511,40
394,41	1519,59
394,62	1511,40
394,84	1626,09
395,06	1583,08
395,27	1548,26
395,49	1533,93
395,70	1697,77
395,92	1525,74
396,13	1542,12
396,35	1621,99
396,57	1517,54
396,78	1531,88
397,00	1515,50
397,21	1568,74
397,43	1644,52
397,65	1505,26
397,86	1626,09
398,08	1591,27
398,29	1714,15
398,51	1540,07
398,72	1671,14
398,94	1775,59
399,16	1640,42
399,37	1544,17
399,59	1693,67
399,80	1550,31
400,02	1568,74
400,23	1540,07
400,45	1617,90
400,67	1624,04
400,88	1566,70
401,10	1533,93
401,31	1533,93
401,53	1595,37
401,74	1619,94
401,96	1552,36
402,17	1576,94
402,39	1544,17
402,61	1593,32
402,82	1529,83
403,04	1638,38
403,25	1581,03
403,47	1640,42
403,68	1501,16
403,90	1708,01
404,11	1521,64
404,33	1462,25
404,54	1624,04
404,76	1548,26
404,97	1564,65
405,19	1662,95
405,41	1560,55
405,62	1691,62
405,84	1523,69
406,05	1671,14
406,27	1478,63
406,48	1658,85
406,70	1574,89
406,91	1593,32
407,13	1595,37
407,34	1509,35
407,56	1738,73
407,77	1542,12
407,99	1609,70
408,20	1734,63
408,42	1546,22
408,63	1550,31
408,85	1572,84
409,06	1531,88
409,28	1718,25
409,49	1609,70
409,71	1562,60
409,92	1628,14
410,14	1693,67
410,35	1724,39
410,57	1595,37
410,78	1564,65
411,00	1570,79
411,21	1687,53
411,43	1660,90
411,64	1615,85
411,86	1533,93
412,07	1646,57
412,29	1615,85
412,50	1595,37
412,72	1638,38
412,93	1652,71
413,15	1621,99
413,36	1560,55
413,58	1673,19
413,79	1558,50
414,01	1642,47
414,22	1646,57
414,43	1693,67
414,65	1675,24
414,86	1544,17
415,08	1626,09
415,29	1634,28
415,51	1499,11
415,72	1597,42
415,94	1621,99
416,15	1615,85
416,37	1562,60
416,58	1550,31
416,80	1566,70
417,01	1617,90
417,22	1597,42
417,44	1658,85
417,65	1687,53
417,87	1615,85
418,08	1761,25
418,30	1591,27
418,51	1619,94
418,73	1654,76
418,94	1556,46
419,15	1605,61
419,37	1607,66
419,58	1574,89
419,80	1654,76
420,01	1597,42
420,23	1574,89
420,44	1693,67
420,65	1619,94
420,87	1730,53
421,08	1617,90
421,30	1701,86
421,51	1591,27
421,73	1562,60
421,94	1603,56
422,15	1628,14
422,37	1632,23
422,58	1556,46
422,80	1646,57
423,01	1656,81
423,22	1572,84
423,44	1570,79
423,65	1654,76
423,87	1632,23
424,08	1837,03
424,29	1683,43
424,51	1601,51
424,72	1679,33
424,94	1679,33
425,15	1650,66
425,36	1742,82
425,58	1587,18
425,79	1806,31
426,01	1710,05
426,22	1759,21
426,43	1796,07
426,65	1679,33
426,86	1740,77
427,08	1779,68
427,29	1740,77
427,50	1697,77
427,72	1654,76
427,93	1665,00
428,14	1650,66
428,36	1708,01
428,57	1781,73
428,79	1738,73
429,00	1861,60
429,21	1753,06
429,43	1796,07
429,64	1837,03
429,85	1828,84
430,07	1814,50
430,28	1839,08
430,49	1847,27
430,71	1794,02
430,92	1875,94
431,14	1916,90
431,35	1916,90
431,56	1943,52
431,78	1845,22
431,99	1990,63
432,20	2025,44
432,42	1988,58
432,63	1953,76
432,84	1935,33
433,06	2011,11
433,27	2033,63
433,48	2070,50
433,70	2125,79
433,91	2170,85
434,12	1986,53
434,34	2164,70
434,55	2185,18
434,76	2160,61
434,98	2242,53
435,19	2174,94
435,40	2197,47
435,62	2269,15
435,83	2414,56
436,04	2269,15
436,26	2394,08
436,47	2234,33
436,68	2230,24
436,90	2402,27
437,11	2553,82
437,32	2402,27
437,54	2613,21
437,75	2559,96
437,96	2602,97
438,17	2686,94
438,39	2678,74
438,60	2852,82
438,81	2830,29
439,03	2975,70
439,24	2877,40
439,45	3131,34
439,67	2936,79
439,88	3123,15
440,09	2955,22
440,30	3233,74
440,52	2953,17
440,73	3200,98
440,94	3264,46
441,16	3274,70
441,37	3286,99
441,58	3299,28
441,80	3459,02
442,01	3426,25
442,22	3622,86
442,43	3522,51
442,65	3731,40
442,86	3702,73
443,07	3823,56
443,28	3764,17
443,50	4042,69
443,71	4198,34
443,92	4237,25
444,14	4065,22
444,35	4704,18
444,56	4591,55
444,77	4741,05
444,99	4769,72
445,20	4949,94
445,41	5173,17
445,62	5478,32
445,84	5439,40
446,05	5670,83
446,26	5861,29
446,47	5601,19
446,69	5713,83
446,90	6258,59
447,11	6170,53
447,32	6014,88
447,54	6176,67
447,75	6369,18
447,96	6332,32
448,17	6479,77
448,39	6883,22
448,60	6557,60
448,81	6948,76
449,02	6885,27
449,23	7135,12
449,45	7726,99
449,66	7421,84
449,87	7735,18
450,08	7927,69
450,30	8091,52
450,51	8728,44
450,72	9037,69
450,93	9398,13
451,15	9684,84
451,36	9690,99
451,57	10321,76
451,78	10538,85
451,99	11396,95
452,21	12177,22
452,42	12105,54
452,63	12130,12
452,84	12382,02
453,05	13072,18
453,27	13481,78
453,48	13905,71
453,69	13682,48
453,90	14362,40
454,11	14341,93
454,33	14264,10
454,54	14978,84
454,75	15224,60
454,96	15468,31
455,17	15392,53
455,39	15613,71
455,60	16287,50
455,81	16731,90
456,02	16142,09
456,23	16015,12
456,45	17266,42
456,66	16963,33
456,87	17420,02
457,08	18431,72
457,29	19121,88
457,50	19060,45
457,72	19496,66
457,93	20006,61
458,14	22017,71
458,35	22652,58
458,56	23033,50
458,77	23117,47
458,99	24237,71
459,20	24536,71
459,41	26472,04
459,62	25376,38
459,83	27031,14
460,04	28350,03
460,26	28755,53
460,47	28360,27
460,68	27901,53
460,89	28431,95
461,10	27618,91
461,31	29017,67
461,52	28317,26
461,74	27676,25
461,95	27414,11
462,16	28079,70
462,37	28163,67
462,58	27733,59
462,79	27307,62
463,00	28128,85
463,22	27983,44
463,43	26824,29
463,64	27082,34
463,85	27192,93
464,06	28370,51
464,27	27674,20
464,48	28448,33
464,70	29556,28
464,91	29722,17
465,12	30957,10
465,33	31663,64
465,54	31065,64
465,75	31858,20
465,96	33125,89
466,17	32415,25
466,38	33515,01
466,60	33146,37
466,81	33068,55
467,02	35519,97
467,23	34170,36
467,44	33205,77
467,65	33177,09
467,86	33592,83
468,07	34858,48
468,28	33961,47
468,50	32200,21
468,71	32036,38
468,92	31202,85
469,13	29779,51
469,34	29322,82
469,55	29441,60
469,76	28429,90
469,97	27002,47
470,18	27350,62
470,39	27328,10
470,60	25949,81
470,82	25020,03
471,03	24733,32
471,24	25319,04
471,45	24665,74
471,66	24909,44
471,87	24704,65
472,08	24086,16
472,29	23811,73
472,50	24280,72
472,71	24080,02
472,92	23277,21
473,13	24168,08
473,34	24002,19
473,55	24594,06
473,77	24983,17
473,98	24684,17
474,19	24759,94
474,40	25220,74
474,61	24833,67
474,82	24440,46
475,03	23740,05
475,24	24141,46
475,45	24137,36
475,66	24583,82
475,87	24053,39
476,08	23709,33
476,29	22953,63
476,50	22935,20
476,71	22507,18
476,92	21141,18
477,13	20760,26
477,34	20606,66
477,55	20078,29
477,76	20029,13
477,97	19173,08
478,18	18712,29
478,40	18536,17
478,61	18497,25
478,82	18276,07
479,03	17643,25
479,24	17100,54
479,45	17712,88
479,66	16901,89
479,87	16926,46
480,08	16596,74
480,29	17225,47
480,50	16862,97
480,71	16932,61
480,92	17006,33
481,13	16879,36
481,34	17202,94
481,55	17284,86
481,76	17301,24
481,97	17389,30
482,18	17262,33
482,39	17182,46
482,60	17325,82
482,81	17612,53
483,02	17247,99
483,23	17063,68
483,44	17184,51
483,65	16738,05
483,86	16719,62
484,07	16799,49
484,28	16377,61
484,49	15822,61
484,70	15980,30
484,91	15525,65
485,12	14870,30
485,33	14614,30
485,54	14350,12
485,75	13723,44
485,96	13631,28
486,17	13309,75
486,38	12635,97
486,59	12443,46
486,80	12312,39
487,01	11980,62
487,21	11708,24
487,42	11605,84
487,63	11663,18
487,84	11251,54
488,05	11190,10
488,26	11202,39
488,47	11050,84
488,68	10700,64
488,89	10956,63
489,10	10805,08
489,31	10360,67
489,52	10524,51
489,73	10661,73
489,94	10356,58
490,15	10399,59
490,36	10628,96
490,57	10442,59
490,78	10170,21
490,99	10583,90
491,20	10411,87
491,41	10495,84
491,61	10360,67
491,82	10186,60
492,03	9979,75
492,24	9662,32
492,45	9625,45
492,66	9262,96
492,87	9262,96
493,08	9119,60
493,29	8834,94
493,50	8365,95
493,71	8396,67
493,92	8114,05
494,13	7937,93
494,34	7651,21
494,54	7466,89
494,75	7315,34
494,96	7333,78
495,17	7288,72
495,38	6842,26
495,59	6915,99
495,80	6817,69
496,01	6631,32
496,22	6500,25
496,43	6266,78
496,64	6252,45
496,84	6211,49
497,05	6035,36
497,26	6279,07
497,47	6201,25
497,68	5986,21
497,89	5943,21
498,10	5969,83
498,31	6102,95
498,52	5986,21
498,72	5840,81
498,93	5941,16
499,14	5871,53
499,35	5822,38
499,56	5877,67
499,77	5758,89
499,98	5873,57
500,19	5687,21
500,40	5646,25
500,60	5496,75
500,81	5564,33
501,02	5541,80
501,23	5560,24
501,44	5285,81
501,65	5461,93
501,86	5220,27
502,06	5046,20
502,27	5158,83
502,48	4988,85
502,69	4937,65
502,90	4929,46
503,11	4675,51
503,32	4632,51
503,53	4562,87
503,73	4413,37
503,94	4259,78
504,15	4245,44
504,36	4122,56
504,57	4011,97
504,78	4014,02
504,98	3956,68
505,19	3844,04
505,40	3887,04
505,61	3739,59
505,82	3717,06
506,03	3817,41
506,23	3663,82
506,44	3729,35
506,65	3780,55
506,86	3651,53
507,07	3598,28
507,28	3553,23
507,48	3567,56
507,69	3598,28
507,90	3549,13
508,11	3561,42
508,32	3413,96
508,53	3553,23
508,73	3524,55
508,94	3422,16
509,15	3440,59
509,36	3530,70
509,57	3266,51
509,77	3377,10
509,98	3366,86
510,19	3250,13
510,40	3258,32
510,61	3194,83
510,81	3198,93
511,02	3274,70
511,23	3186,64
511,44	3059,67
511,65	3018,71
511,85	3028,95
512,06	3086,29
512,27	2908,12
512,48	2858,96
512,69	2912,21
512,89	2826,20
513,10	2723,80
513,31	2703,32
513,52	2686,94
513,73	2768,85
513,93	2717,65
514,14	2670,55
514,35	2590,68
514,56	2652,12
514,76	2562,01
514,97	2731,99
515,18	2557,91
515,39	2475,99
515,60	2496,47
515,80	2482,14
516,01	2408,41
516,22	2467,80
516,43	2404,32
516,63	2451,42
516,84	2582,49
517,05	2449,37
517,26	2412,51
517,46	2416,60
517,67	2471,90
517,88	2412,51
518,09	2297,82
518,29	2326,49
518,50	2396,12
518,71	2357,21
518,92	2402,27
519,12	2344,92
519,33	2416,60
519,54	2346,97
519,75	2340,83
519,95	2324,44
520,16	2306,01
520,37	2258,91
520,57	2297,82
520,78	2303,96
520,99	2230,24
521,20	2172,89
521,40	2140,13
521,61	2289,63
521,82	2103,26
522,03	2015,20
522,23	2129,89
522,44	2113,50
522,65	2113,50
522,85	1986,53
523,06	2025,44
523,27	2127,84
523,48	2109,41
523,68	2078,69
523,89	2101,22
524,10	2060,26
524,30	1949,67
524,51	1957,86
524,72	1949,67
524,93	1994,72
525,13	1972,19
525,34	1992,67
525,55	2039,78
525,75	1920,99
525,96	1982,43
526,17	1933,28
526,37	1957,86
526,58	1957,86
526,79	1927,14
526,99	1896,42
527,20	1935,33
527,41	1890,28
527,62	1943,52
527,82	1880,04
528,03	1759,21
528,24	1748,97
528,44	1896,42
528,65	1785,83
528,86	1873,89
529,06	1861,60
529,27	1808,36
529,48	1906,66
529,68	1986,53
529,89	1910,75
530,10	1908,71
530,30	1839,08
530,51	1845,22
530,72	1886,18
530,92	1859,56
531,13	1875,94
531,34	1845,22
531,54	1796,07
531,75	1859,56
531,96	1904,61
532,16	1873,89
532,37	1880,04
532,57	1820,64
532,78	1769,44
532,99	1732,58
533,19	1867,75
533,40	1746,92
533,61	1779,68
533,81	1834,98
534,02	1710,05
534,23	1728,49
534,43	1798,12
534,64	1742,82
534,84	1726,44
535,05	1718,25
535,26	1736,68
535,46	1798,12
535,67	1757,16
535,88	1701,86
536,08	1667,05
536,29	1742,82
536,49	1732,58
536,70	1724,39
536,91	1685,48
537,11	1671,14
537,32	1691,62
537,53	1779,68
537,73	1785,83
537,94	1671,14
538,14	1697,77
538,35	1695,72
538,56	1667,05
538,76	1722,34
538,97	1697,77
539,17	1599,46
539,38	1800,16
539,59	1708,01
539,79	1689,57
540,00	1671,14
540,20	1671,14
540,41	1716,20
540,62	2015,20
540,82	1605,61
541,03	1712,10
541,23	1691,62
541,44	1679,33
541,64	1697,77
541,85	1613,80
542,06	1658,85
542,26	1671,14
542,47	1660,90
542,67	1671,14
542,88	1757,16
543,08	1671,14
543,29	1691,62
543,50	1755,11
543,70	1740,77
543,91	1773,54
544,11	1673,19
544,32	1773,54
544,52	1710,05
544,73	1628,14
544,94	1677,29
545,14	1574,89
545,35	1638,38
545,55	1609,70
545,76	1626,09
545,96	1669,09
546,17	1644,52
546,37	1656,81
546,58	1714,15
546,78	1583,08
546,99	1662,95
547,20	1759,21
547,40	1654,76
547,61	1624,04
547,81	1576,94
548,02	1736,68
548,22	1589,22
548,43	1662,95
548,63	1615,85
548,84	1685,48
549,04	1640,42
549,25	1634,28
549,45	1619,94
549,66	1538,02
549,86	1677,29
550,07	1626,09
550,27	1626,09
550,48	1628,14
550,69	1687,53
550,89	1662,95
551,10	1507,30
551,30	1619,94
551,51	1583,08
551,71	1656,81
551,92	1710,05
552,12	1626,09
552,33	1550,31
552,53	1595,37
552,74	1701,86
552,94	1636,33
553,15	1572,84
553,35	1773,54
553,56	1630,18
553,76	1617,90
553,97	1601,51
554,17	1603,56
554,38	1660,90
554,58	1585,13
554,79	1515,50
554,99	1529,83
555,19	1554,41
555,40	1652,71
555,60	1656,81
555,81	1527,78
556,01	1644,52
556,22	1669,09
556,42	1583,08
556,63	1626,09
556,83	1576,94
557,04	1585,13
557,24	1695,72
557,45	1558,50
557,65	1523,69
557,86	1597,42
558,06	1677,29
558,27	1642,47
558,47	1529,83
558,67	1656,81
558,88	1497,07
559,08	1613,80
559,29	1595,37
559,49	1617,90
559,70	1515,50
559,90	1550,31
560,11	1581,03
560,31	1644,52
560,52	1628,14
560,72	1521,64
560,92	1624,04
561,13	1615,85
561,33	1609,70
561,54	1648,61
561,74	1656,81
561,95	1535,98
562,15	1687,53
562,35	1552,36
562,56	1570,79
562,76	1458,15
562,97	1617,90
563,17	1611,75
563,38	1550,31
563,58	1544,17
563,78	1583,08
563,99	1583,08
564,19	1521,64
564,40	1583,08
564,60	1615,85
564,80	1511,40
565,01	1535,98
565,21	1599,46
565,42	1726,44
565,62	1617,90
565,83	1644,52
566,03	1621,99
566,23	1615,85
566,44	1556,46
566,64	1564,65
566,85	1585,13
567,05	1607,66
567,25	1599,46
567,46	1714,15
567,66	1566,70
567,86	1566,70
568,07	1525,74
568,27	1628,14
568,48	1542,12
568,68	1552,36
568,88	1583,08
569,09	1654,76
569,29	1597,42
569,50	1544,17
569,70	1562,60
569,90	1646,57
570,11	1550,31
570,31	1562,60
570,51	1603,56
570,72	1478,63
570,92	1593,32
571,13	1626,09
571,33	1574,89
571,53	1593,32
571,74	1648,61
571,94	1673,19
572,14	1550,31
572,35	1482,73
572,55	1626,09
572,75	1630,18
572,96	1605,61
573,16	1617,90
573,36	1619,94
573,57	1617,90
573,77	1542,12
573,97	1572,84
574,18	1527,78
574,38	1601,51
574,59	1626,09
574,79	1599,46
574,99	1562,60
575,20	1564,65
575,40	1490,92
575,60	1607,66
575,81	1665,00
576,01	1578,98
576,21	1538,02
576,42	1611,75
576,62	1531,88
576,82	1499,11
577,02	1605,61
577,23	1540,07
577,43	1609,70
577,63	1624,04
577,84	1488,87
578,04	1544,17
578,24	1490,92
578,45	1490,92
578,65	1560,55
578,85	1492,97
579,06	1634,28
579,26	1654,76
579,46	1560,55
579,67	1521,64
579,87	1646,57
580,07	1581,03
580,27	1523,69
580,48	1503,21
580,68	1538,02
580,88	1677,29
581,09	1617,90
581,29	1529,83
581,49	1728,49
581,69	1525,74
581,90	1560,55
582,10	1454,06
582,30	1554,41
582,51	1554,41
582,71	1501,16
582,91	1597,42
583,11	1540,07
583,32	1548,26
583,52	1558,50
583,72	1529,83
583,93	1611,75
584,13	1624,04
584,33	1646,57
584,53	1529,83
584,74	1634,28
584,94	1527,78
585,14	1552,36
585,34	1619,94
585,55	1597,42
585,75	1591,27
585,95	1595,37
586,15	1513,45
586,36	1589,22
586,56	1593,32
586,76	1665,00
586,96	1484,78
587,17	1511,40
587,37	1560,55
587,57	1535,98
587,77	1490,92
587,98	1587,18
588,18	1615,85
588,38	1515,50
588,58	1595,37
588,79	1558,50
588,99	1503,21
589,19	1576,94
589,39	1619,94
589,60	1581,03
589,80	1624,04
590,00	1576,94
590,20	1517,54
590,40	1546,22
590,61	1542,12
590,81	1576,94
591,01	1501,16
591,21	1632,23
591,42	1585,13
591,62	1540,07
591,82	1507,30
592,02	1628,14
592,22	1550,31
592,43	1581,03
592,63	1591,27
592,83	1654,76
593,03	1701,86
593,23	1589,22
593,44	1617,90
593,64	1478,63
593,84	1540,07
594,04	1564,65
594,24	1566,70
594,45	1583,08
594,65	1495,02
594,85	1572,84
595,05	1515,50
595,25	1503,21
595,46	1638,38
595,66	1558,50
595,86	1613,80
596,06	1501,16
596,26	1525,74
596,46	1619,94
596,67	1513,45
596,87	1562,60
597,07	1636,33
597,27	1447,91
597,47	1556,46
597,67	1650,66
597,88	1581,03
598,08	1523,69
598,28	1587,18
598,48	1472,49
598,68	1527,78
598,88	1652,71
599,09	1605,61
599,29	1568,74
599,49	1538,02
599,69	1591,27
599,89	1538,02
600,09	1581,03
600,30	1617,90
600,50	1591,27
600,70	1589,22
600,90	1566,70
601,10	1607,66
601,30	1611,75
601,50	1581,03
601,71	1681,38
601,91	1605,61
602,11	1554,41
602,31	1605,61
602,51	1544,17
602,71	1593,32
602,91	1591,27
603,11	1533,93
603,32	1515,50
603,52	1554,41
603,72	1593,32
603,92	1511,40
604,12	1599,46
604,32	1552,36
604,52	1531,88
604,72	1595,37
604,93	1589,22
605,13	1578,98
605,33	1562,60
605,53	1535,98
605,73	1480,68
605,93	1656,81
606,13	1509,35
606,33	1525,74
606,53	1478,63
606,74	1535,98
606,94	1583,08
607,14	1597,42
607,34	1505,26
607,54	1501,16
607,74	1507,30
607,94	1427,43
608,14	1609,70
608,34	1546,22
608,54	1531,88
608,74	1515,50
608,95	1540,07
609,15	1576,94
609,35	1515,50
609,55	1548,26
609,75	1568,74
609,95	1595,37
610,15	1497,07
610,35	1535,98
610,55	1515,50
610,75	1519,59
610,95	1492,97
611,15	1554,41
611,35	1607,66
611,55	1716,20
611,76	1593,32
611,96	1548,26
612,16	1581,03
612,36	1605,61
612,56	1644,52
612,76	1644,52
612,96	1615,85
613,16	1628,14
613,36	1540,07
613,56	1597,42
613,76	1519,59
613,96	1552,36
614,16	1490,92
614,36	1581,03
614,56	1578,98
614,76	1597,42
614,96	1589,22
615,16	1509,35
615,36	1472,49
615,56	1513,45
615,76	1550,31
615,97	1564,65
616,17	1517,54
616,37	1611,75
616,57	1609,70
616,77	1591,27
616,97	1562,60
617,17	1523,69
617,37	1632,23
617,57	1501,16
617,77	1499,11
617,97	1597,42
618,17	1427,43
618,37	1589,22
618,57	1628,14
618,77	1595,37
618,97	1554,41
619,17	1578,98
619,37	1609,70
619,57	1595,37
619,77	1578,98
619,97	1529,83
620,17	1617,90
620,37	1605,61
620,57	1535,98
620,77	1607,66
620,97	1552,36
621,17	1523,69
621,37	1507,30
621,57	1540,07
621,77	1529,83
621,97	1646,57
622,17	1568,74
622,37	1523,69
622,57	1638,38
622,77	1484,78
622,97	1544,17
623,17	1546,22
623,37	1576,94
623,57	1572,84
623,77	1495,02
623,97	1501,16
624,16	1480,68
624,36	1538,02
624,56	1501,16
624,76	1605,61
624,96	1505,26
625,16	1558,50
625,36	1562,60
625,56	1507,30
625,76	1529,83
625,96	1501,16
626,16	1587,18
626,36	1505,26
626,56	1740,77
626,76	1564,65
626,96	1472,49
627,16	1535,98
627,36	1525,74
627,56	1652,71
627,76	1570,79
627,96	1542,12
628,16	1611,75
628,35	1634,28
628,55	1591,27
628,75	1613,80
628,95	1519,59
629,15	1615,85
629,35	1464,30
629,55	1556,46
629,75	1626,09
629,95	1521,64
630,15	1480,68
630,35	1511,40
630,55	1544,17
630,75	1552,36
630,95	1677,29
631,14	1626,09
631,34	1454,06
631,54	1564,65
631,74	1548,26
631,94	1525,74
632,14	1474,54
632,34	1476,59
632,54	1531,88
632,74	1550,31
632,94	1499,11
633,14	1621,99
633,33	1449,96
633,53	1595,37
633,73	1628,14
633,93	1585,13
634,13	1593,32
634,33	1578,98
634,53	1466,35
634,73	1576,94
634,93	1462,25
635,12	1521,64
635,32	1607,66
635,52	1521,64
635,72	1490,92
635,92	1538,02
636,12	1607,66
636,32	1531,88
636,52	1511,40
636,71	1554,41
636,91	1648,61
637,11	1521,64
637,31	1505,26
637,51	1468,39
637,71	1671,14
637,91	1527,78
638,11	1578,98
638,30	1474,54
638,50	1509,35
638,70	1630,18
638,90	1552,36
639,10	1552,36
639,30	1583,08
639,50	1585,13
639,69	1484,78
639,89	1517,54
640,09	1480,68
640,29	1572,84
640,49	1558,50
640,69	1484,78
640,88	1529,83
641,08	1478,63
641,28	1558,50
641,48	1544,17
641,68	1595,37
641,88	1574,89
642,07	1495,02
642,27	1542,12
642,47	1550,31
642,67	1523,69
642,87	1583,08
643,07	1568,74
643,26	1603,56
643,46	1615,85
643,66	1511,40
643,86	1619,94
644,06	1517,54
644,26	1513,45
644,45	1538,02
644,65	1501,16
644,85	1566,70
645,05	1564,65
645,25	1626,09
645,44	1585,13
645,64	1570,79
645,84	1552,36
646,04	1437,67
646,24	1527,78
646,43	1624,04
646,63	1603,56
646,83	1525,74
647,03	1605,61
647,23	1452,01
647,42	1544,17
647,62	1578,98
647,82	1527,78
648,02	1492,97
648,22	1597,42
648,41	1552,36
648,61	1529,83
648,81	1550,31
649,01	1517,54
649,20	1578,98
649,40	1533,93
649,60	1728,49
649,80	1570,79
650,00	1540,07
650,19	1531,88
650,39	1562,60
650,59	1593,32
650,79	1511,40
650,98	1441,77
651,18	1499,11
651,38	1550,31
651,58	1574,89
651,77	1540,07
651,97	1587,18
652,17	1499,11
652,37	1601,51
652,56	1486,83
652,76	1558,50
652,96	1597,42
653,16	1507,30
653,35	1443,82
653,55	1488,87
653,75	1511,40
653,95	1564,65
654,14	1578,98
654,34	1511,40
654,54	1556,46
654,74	1449,96
654,93	1568,74
655,13	1570,79
655,33	1445,87
655,52	1486,83
655,72	1574,89
655,92	1437,67
656,12	1492,97
656,31	1540,07
656,51	1509,35
656,71	1550,31
656,91	1531,88
657,10	1501,16
657,30	1486,83
657,50	1513,45
657,69	1507,30
657,89	1658,85
658,09	1589,22
658,29	1603,56
658,48	1574,89
658,68	1492,97
658,88	1613,80
659,07	1523,69
659,27	1566,70
659,47	1470,44
659,66	1525,74
659,86	1509,35
660,06	1554,41
660,26	1507,30
660,45	1615,85
660,65	1617,90
660,85	1634,28
661,04	1476,59
661,24	1550,31
661,44	1507,30
661,63	1546,22
661,83	1540,07
662,03	1552,36
662,22	1482,73
662,42	1531,88
662,62	1578,98
662,81	1492,97
663,01	1527,78
663,21	1583,08
663,40	1531,88
663,60	1599,46
663,80	1480,68
663,99	1630,18
664,19	1568,74
664,39	1595,37
664,58	1562,60
664,78	1529,83
664,98	1406,95
665,17	1533,93
665,37	1478,63
665,57	1632,23
665,76	1615,85
665,96	1492,97
666,16	1484,78
666,35	1597,42
666,55	1597,42
666,74	1556,46
666,94	1560,55
667,14	1552,36
667,33	1525,74
667,53	1581,03
667,73	1527,78
667,92	1568,74
668,12	1535,98
668,32	1607,66
668,51	1429,48
668,71	1499,11
668,90	1468,39
669,10	1527,78
669,30	1488,87
669,49	1595,37
669,69	1533,93
669,89	1458,15
670,08	1431,53
670,28	1855,46
670,47	1597,42
670,67	1564,65
670,87	1558,50
671,06	1572,84
671,26	1599,46
671,45	1486,83
671,65	1556,46
671,85	1462,25
672,04	1609,70
672,24	1482,73
672,43	1574,89
672,63	1566,70
672,83	1525,74
673,02	1484,78
673,22	1388,52
673,41	1507,30
673,61	1445,87
673,81	1519,59
674,00	1630,18
674,20	1527,78
674,39	1513,45
674,59	1443,82
674,78	1492,97
674,98	1634,28
675,18	1556,46
675,37	1507,30
675,57	1535,98
675,76	1540,07
675,96	1589,22
676,15	1533,93
676,35	1558,50
676,55	1566,70
676,74	1452,01
676,94	1560,55
677,13	1531,88
677,33	1507,30
677,52	1513,45
677,72	1447,91
677,91	1423,34
678,11	1550,31
678,31	1511,40
678,50	1564,65
678,70	1474,54
678,89	1560,55
679,09	1535,98
679,28	1560,55
679,48	1581,03
679,67	1535,98
679,87	1523,69
680,06	1777,64
680,26	1611,75
680,46	1556,46
680,65	1478,63
680,85	1605,61
681,04	1521,64
681,24	1466,35
681,43	1550,31
681,63	1564,65
681,82	1550,31
682,02	1517,54
682,21	1538,02
682,41	1542,12
682,60	1585,13
682,80	1497,07
682,99	1544,17
683,19	1527,78
683,38	1572,84
683,58	1562,60
683,77	1521,64
683,97	1587,18
684,16	1662,95
684,36	1511,40
684,55	1581,03
684,75	1552,36
684,94	1527,78
685,14	1593,32
685,33	1576,94
685,53	1531,88
685,72	1564,65
685,92	1535,98
686,11	1435,63
686,31	1529,83
686,50	1581,03
686,70	1574,89
686,89	1484,78
687,09	1490,92
687,28	1585,13
687,48	1511,40
687,67	1619,94
687,87	1521,64
688,06	1419,24
688,26	1550,31
688,45	1480,68
688,65	1554,41
688,84	1474,54
689,03	1548,26
689,23	1464,30
689,42	1642,47
689,62	1595,37
689,81	1519,59
690,01	1550,31
690,20	1533,93
690,40	1560,55
690,59	1640,42
690,79	1554,41
690,98	1566,70
691,17	1619,94
691,37	1595,37
691,56	1515,50
691,76	1540,07
691,95	1540,07
692,15	1529,83
692,34	1560,55
692,54	1507,30
692,73	1538,02
692,92	1607,66
693,12	1531,88
693,31	1521,64
693,51	1566,70
693,70	1449,96
693,90	1507,30
694,09	1572,84
694,28	1576,94
694,48	1566,70
694,67	1570,79
694,87	1578,98
695,06	1615,85
695,26	1562,60
695,45	1478,63
695,64	1535,98
695,84	1495,02
696,03	1437,67
696,23	1497,07
696,42	1462,25
696,61	1626,09
696,81	1482,73
697,00	1501,16
697,20	1529,83
697,39	1497,07
697,58	1435,63
697,78	1599,46
697,97	1599,46
698,17	1544,17
698,36	1495,02
698,55	1490,92
698,75	1552,36
698,94	1454,06
699,14	1529,83
699,33	1456,11
699,52	1560,55
699,72	1560,55
699,91	1480,68
700,10	1517,54
700,30	1523,69
700,49	1552,36
700,69	1484,78
700,88	1540,07
701,07	1468,39
701,27	1497,07
701,46	1675,24
701,65	1572,84
701,85	1490,92
702,04	1603,56
702,23	1542,12
702,43	1449,96
702,62	1513,45
702,82	1556,46
703,01	1624,04
703,20	1550,31
703,40	1540,07
703,59	1538,02
703,78	1501,16
703,98	1538,02
704,17	1501,16
704,36	1540,07
704,56	1554,41
704,75	1535,98
704,94	1511,40
705,14	1679,33
705,33	1591,27
705,52	1587,18
705,72	1492,97
705,91	1546,22
706,10	1495,02
706,30	1566,70
706,49	1533,93
706,68	1572,84
706,88	1552,36
707,07	1525,74
707,26	1576,94
707,46	1654,76
707,65	1589,22
707,84	1552,36
708,04	1406,95
708,23	1642,47
708,42	1603,56
708,62	1531,88
708,81	1456,11
709,00	1624,04
709,19	1540,07
709,39	1454,06
709,58	1583,08
709,77	1505,26
709,97	1568,74
710,16	1568,74
710,35	1572,84
710,55	1556,46
710,74	1581,03
710,93	1535,98
711,12	1548,26
711,32	1558,50
711,51	1523,69
711,70	1546,22
711,90	1527,78
712,09	1525,74
712,28	1583,08
712,47	1509,35
712,67	1533,93
712,86	1595,37
713,05	1624,04
713,24	1449,96
713,44	1533,93
713,63	1570,79
713,82	1611,75
714,02	1515,50
714,21	1626,09
714,40	1527,78
714,59	1595,37
714,79	1433,58
714,98	1634,28
715,17	1630,18
715,36	1480,68
715,56	1509,35
715,75	1556,46
715,94	1544,17
716,13	1431,53
716,33	1505,26
716,52	1468,39
716,71	1601,51
716,90	1556,46
717,10	1550,31
717,29	1517,54
717,48	1593,32
717,67	1574,89
717,87	1587,18
718,06	1572,84
718,25	1550,31
718,44	1640,42
718,63	1554,41
718,83	1474,54
719,02	1527,78
719,21	1558,50
719,40	1486,83
719,60	1454,06
719,79	1480,68
719,98	1621,99
720,17	1482,73
720,36	1480,68
720,56	1556,46
720,75	1435,63
720,94	1574,89
721,13	1556,46
721,33	1535,98
721,52	1540,07
721,71	1560,55
721,90	1615,85
722,09	1599,46
722,29	1531,88
722,48	1509,35
722,67	1495,02
722,86	1609,70
723,05	1531,88
723,24	1597,42
723,44	1474,54
723,63	1470,44
723,82	1548,26
724,01	1521,64
724,20	1552,36
724,40	1525,74
724,59	1406,95
724,78	1495,02
724,97	1548,26
725,16	1562,60
725,35	1566,70
725,55	1527,78
725,74	1576,94
725,93	1619,94
726,12	1513,45
726,31	1638,38
726,51	1605,61
726,70	1458,15
726,89	1525,74
727,08	1574,89
727,27	1615,85
727,46	1550,31
727,65	1617,90
727,85	1503,21
728,04	1470,44
728,23	1443,82
728,42	1542,12
728,61	1535,98
728,80	1562,60
729,00	1589,22
729,19	1611,75
729,38	1617,90
729,57	1544,17
729,76	1499,11
729,95	1648,61
730,14	1583,08
730,33	1503,21
730,53	1552,36
730,72	1427,43
730,91	1548,26
731,10	1642,47
731,29	1613,80
731,48	1533,93
731,67	1501,16
731,86	1511,40
732,06	1460,20
732,25	1490,92
732,44	1574,89
732,63	1523,69
732,82	1652,71
733,01	1576,94
733,20	1501,16
733,39	1552,36
733,59	1501,16
733,78	1476,59
733,97	1566,70
734,16	1630,18
734,35	1538,02
734,54	1572,84
734,73	1529,83
734,92	1544,17
735,11	1449,96
735,30	1488,87
735,49	1523,69
735,69	1662,95
735,88	1548,26
736,07	1615,85
736,26	1540,07
736,45	1570,79
736,64	1566,70
736,83	1531,88
737,02	1613,80
737,21	1472,49
737,40	1562,60
737,59	1697,77
737,78	1476,59
737,98	1519,59
738,17	1513,45
738,36	1609,70
738,55	1511,40
738,74	1535,98
738,93	1488,87
739,12	1527,78
739,31	1484,78
739,50	1437,67
739,69	1533,93
739,88	1648,61
740,07	1552,36
740,26	1574,89
740,45	1603,56
740,64	1630,18
740,83	1550,31
741,02	1460,20
741,22	1533,93
741,41	1624,04
741,60	1585,13
741,79	1554,41
741,98	1513,45
742,17	1464,30
742,36	1566,70
742,55	1470,44
742,74	1669,09
742,93	1544,17
743,12	1540,07
743,31	1593,32
743,50	1570,79
743,69	1554,41
743,88	1576,94
744,07	1517,54
744,26	1710,05
744,45	1556,46
744,64	1544,17
744,83	1533,93
745,02	1478,63
745,21	1564,65
745,40	1548,26
745,59	1570,79
745,78	1533,93
745,97	1552,36
746,16	1638,38
746,35	1546,22
746,54	1429,48
746,73	1445,87
746,92	1605,61
747,11	1507,30
747,30	1556,46
747,49	1470,44
747,68	1511,40
747,87	1562,60
748,06	1531,88
748,25	1525,74
748,44	1589,22
748,63	1605,61
748,82	1495,02
749,01	1495,02
749,20	1474,54
749,39	1501,16
749,58	1492,97
749,77	1476,59
749,96	1501,16
750,15	1507,30
750,34	1507,30
750,53	1576,94
750,72	1554,41
750,91	1413,10
751,10	1611,75
751,29	1478,63
751,48	1413,10
751,67	1570,79
751,86	1513,45
752,04	1599,46
752,23	1638,38
752,42	1454,06
752,61	1505,26
752,80	1564,65
752,99	1466,35
753,18	1482,73
753,37	1550,31
753,56	1415,15
753,75	1564,65
753,94	1474,54
754,13	1564,65
754,32	1503,21
754,51	1437,67
754,70	1554,41
754,89	1523,69
755,08	1632,23
755,27	1484,78
755,45	1554,41
755,64	1452,01
755,83	1583,08
756,02	1595,37
756,21	1564,65
756,40	1560,55
756,59	1490,92
756,78	1482,73
756,97	1548,26
757,16	1505,26
757,35	1703,91
757,54	1535,98
757,72	1634,28
757,91	1515,50
758,10	1495,02
758,29	1492,97
758,48	1581,03
758,67	1513,45
758,86	1599,46
759,05	1529,83
759,24	1482,73
759,43	1503,21
759,61	1484,78
759,80	1503,21
759,99	1535,98
760,18	1570,79
760,37	1535,98
760,56	1499,11
760,75	1560,55
760,94	1570,79
761,13	1513,45
761,31	1591,27
761,50	1466,35
761,69	1497,07
761,88	1540,07
762,07	1409,00
762,26	1546,22
762,45	1587,18
762,64	1497,07
762,82	1476,59
763,01	1665,00
763,20	1630,18
763,39	1527,78
763,58	1550,31
763,77	1519,59
763,96	1484,78
764,14	1464,30
764,33	1515,50
764,52	1488,87
764,71	1646,57
764,90	1556,46
765,09	1492,97
765,27	1552,36
765,46	1488,87
765,65	1501,16
765,84	1615,85
766,03	1562,60
766,22	1429,48
766,41	1492,97
766,59	1484,78
766,78	1613,80
766,97	1519,59
767,16	1568,74
767,35	1521,64
767,54	1640,42
767,72	1566,70
767,91	1542,12
768,10	1480,68
768,29	1478,63
768,48	1507,30
768,66	1513,45
768,85	1488,87
769,04	1560,55
769,23	1497,07
769,42	1621,99
769,61	1591,27
769,79	1621,99
769,98	1552,36
770,17	1458,15
770,36	1564,65
770,55	1517,54
770,73	1568,74
770,92	1558,50
771,11	1525,74
771,30	1474,54
771,49	1603,56
771,67	1619,94
771,86	1511,40
772,05	1554,41
772,24	1474,54
772,42	1515,50
772,61	1533,93
772,80	1474,54
772,99	1533,93
773,18	1572,84
773,36	1495,02
773,55	1437,67
773,74	1460,20
773,93	1521,64
774,11	1478,63
774,30	1578,98
774,49	1468,39
774,68	1517,54
774,87	1619,94
775,05	1441,77
775,24	1472,49
775,43	1587,18
775,62	1535,98
775,80	1591,27
775,99	1574,89
776,18	1671,14
776,37	1511,40
776,55	1562,60
776,74	1560,55
776,93	1535,98
777,12	1542,12
777,30	1552,36
777,49	1509,35
777,68	1501,16
777,87	1495,02
778,05	1492,97
778,24	1550,31
778,43	1472,49
778,62	1515,50
778,80	1581,03
778,99	1529,83
779,18	1474,54
779,36	1583,08
779,55	1441,77
779,74	1554,41
779,93	1513,45
780,11	1515,50
780,30	1554,41
780,49	1554,41
780,68	1509,35
780,86	1621,99
781,05	1501,16
781,24	1581,03
781,42	1519,59
781,61	1560,55
781,80	1411,05
781,98	1499,11
782,17	1570,79
782,36	1527,78
782,55	1511,40
782,73	1447,91
782,92	1636,33
783,11	1417,19
783,29	1507,30
783,48	1507,30
783,67	1550,31
783,85	1535,98
784,04	1617,90
784,23	1574,89
784,42	1505,26
784,60	1521,64
784,79	1564,65
784,98	1519,59
785,16	1583,08
785,35	1523,69
785,54	1609,70
785,72	1583,08
785,91	1603,56
786,10	1447,91
786,28	1556,46
786,47	1585,13
786,66	1466,35
786,84	1595,37
787,03	1687,53
787,22	1517,54
787,40	1492,97
787,59	1603,56
787,78	1554,41
787,96	1472,49
788,15	1538,02
788,34	1515,50
788,52	1529,83
788,71	1495,02
788,89	1535,98
789,08	1517,54
789,27	1683,43
789,45	1576,94
789,64	1546,22
789,83	1478,63
790,01	1454,06
790,20	1581,03
790,39	1533,93
790,57	1505,26
790,76	1429,48
790,95	1499,11
791,13	1558,50
791,32	1538,02
791,50	1515,50
791,69	1538,02
791,88	1583,08
792,06	1665,00
792,25	1511,40
792,43	1515,50
792,62	1595,37
792,81	1456,11
792,99	1435,63
793,18	1564,65
793,37	1542,12
793,55	1456,11
793,74	1554,41
793,92	1587,18
794,11	1527,78
794,30	1447,91
794,48	1527,78
794,67	1505,26
794,85	1529,83
795,04	1490,92
795,23	1521,64
795,41	1452,01
795,60	1495,02
795,78	1513,45
795,97	1603,56
796,15	1607,66
796,34	1468,39
796,53	1509,35
796,71	1581,03
796,90	1587,18
797,08	1564,65
797,27	1542,12
797,46	1511,40
797,64	1466,35
797,83	1527,78
798,01	1478,63
798,20	1609,70
798,38	1517,54
798,57	1427,43
798,76	1435,63
798,94	1501,16
799,13	1529,83
799,31	1556,46
799,50	1456,11
799,68	1449,96
799,87	1492,97
800,05	1484,78
800,24	1527,78
800,43	1409,00
800,61	1587,18
800,80	1515,50
800,98	1507,30
801,17	1482,73
801,35	1507,30
801,54	1556,46
801,72	1566,70
801,91	1589,22
802,09	1548,26
802,28	1501,16
802,46	1515,50
802,65	1499,11
802,84	1589,22
803,02	1574,89
803,21	1529,83
803,39	1513,45
803,58	1599,46
803,76	1538,02
803,95	1515,50
804,13	1505,26
804,32	1449,96
804,50	1644,52
804,69	1597,42
804,87	1447,91
805,06	1603,56
805,24	1601,51
805,43	1527,78
805,61	1480,68
805,80	1566,70
805,98	1517,54
806,17	1474,54
806,35	1519,59
806,54	1552,36
806,72	1515,50
806,91	1519,59
807,09	1572,84
807,28	1503,21
807,46	1517,54
807,65	1560,55
807,83	1523,69
808,02	1449,96
808,20	1507,30
808,39	1513,45
808,57	1540,07
808,76	1550,31
808,94	1478,63
809,13	1513,45
809,31	1513,45
809,49	1560,55
809,68	1452,01
809,86	1542,12
810,05	1466,35
810,23	1503,21
810,42	1542,12
810,60	1560,55
810,79	1495,02
810,97	1525,74
811,16	1538,02
811,34	1552,36
811,53	1529,83
811,71	1503,21
811,89	1601,51
812,08	1562,60
812,26	1527,78
812,45	1570,79
812,63	1480,68
812,82	1540,07
813,00	1505,26
813,19	1501,16
813,37	1556,46
813,55	1509,35
813,74	1482,73
813,92	1605,61
814,11	1468,39
814,29	1419,24
814,48	1603,56
814,66	1564,65
814,84	1548,26
815,03	1499,11
815,21	1566,70
815,40	1593,32
815,58	1474,54
815,77	1693,67
815,95	1531,88
816,13	1470,44
816,32	1613,80
816,50	1552,36
816,69	1531,88
816,87	1488,87
817,05	1519,59
817,24	1597,42
817,42	1507,30
817,61	1411,05
817,79	1560,55
817,97	1548,26
818,16	1533,93
818,34	1640,42
818,53	1462,25
818,71	1538,02
818,89	1517,54
819,08	1550,31
819,26	1533,93
819,45	1511,40
819,63	1486,83
819,81	1501,16
820,00	1730,53
820,18	1490,92
820,36	1505,26
820,55	1495,02
820,73	1488,87
820,92	1503,21
821,10	1492,97
821,28	1507,30
821,47	1630,18
821,65	1546,22
821,83	1691,62
822,02	1439,72
822,20	1542,12
822,39	1486,83
822,57	1523,69
822,75	1499,11
822,94	1548,26
823,12	1476,59
823,30	1458,15
823,49	1558,50
823,67	1538,02
823,85	1521,64
824,04	1542,12
824,22	1443,82
824,40	1609,70
824,59	1595,37
824,77	1497,07
824,95	1454,06
825,14	1597,42
825,32	1644,52
825,50	1538,02
825,69	1515,50
825,87	1658,85
826,05	1593,32
826,24	1560,55
826,42	1605,61
826,60	1585,13
826,79	1564,65
826,97	1490,92
827,15	1449,96
827,34	1552,36
827,52	1517,54
827,70	1490,92
827,89	1441,77
828,07	1562,60
828,25	1503,21
828,44	1497,07
828,62	1544,17
828,80	1574,89
828,98	1628,14
829,17	1511,40
829,35	1574,89
829,53	1447,91
829,72	1558,50
829,90	1525,74
830,08	1564,65
830,27	1474,54
830,45	1605,61
830,63	1599,46
830,81	1431,53
831,00	1589,22
831,18	1497,07
831,36	1476,59
831,55	1511,40
831,73	1484,78
831,91	1538,02
832,09	1578,98
832,28	1593,32
832,46	1495,02
832,64	1652,71
832,82	1490,92
833,01	1585,13
833,19	1519,59
833,37	1423,34
833,55	1495,02
833,74	1499,11
833,92	1546,22
834,10	1490,92
834,29	1531,88
834,47	1509,35
834,65	1531,88
834,83	1474,54
835,02	1501,16
835,20	1503,21
835,38	1533,93
835,56	1458,15
835,75	1486,83
835,93	1527,78
836,11	1452,01
836,29	1517,54
836,47	1613,80
836,66	1435,63
836,84	1566,70
837,02	1482,73
837,20	1525,74
837,39	1517,54
837,57	1490,92
837,75	1482,73
837,93	1523,69
838,12	1478,63
838,30	1476,59
838,48	1525,74
838,66	1646,57
838,84	1511,40
839,03	1558,50
839,21	1525,74
839,39	1501,16
839,57	1642,47
839,75	1576,94
839,94	1482,73
840,12	1517,54
840,30	1411,05
840,48	1535,98
840,66	1480,68
840,85	1462,25
841,03	1501,16
841,21	1509,35
841,39	1589,22
841,57	1488,87
841,76	1546,22
841,94	1521,64
842,12	1556,46
842,30	1490,92
842,48	1542,12
842,67	1497,07
842,85	1497,07
843,03	1568,74
843,21	1568,74
843,39	1533,93
843,57	1464,30
843,76	1486,83
843,94	1445,87
844,12	1554,41
844,30	1495,02
844,48	1468,39
844,66	1503,21
844,85	1499,11
845,03	1538,02
845,21	1466,35
845,39	1544,17
845,57	1529,83
845,75	1540,07
845,94	1531,88
846,12	1509,35
846,30	1568,74
846,48	1525,74
846,66	1570,79
846,84	1486,83
847,02	1492,97
847,21	1570,79
847,39	1527,78
847,57	1538,02
847,75	1507,30
847,93	1462,25
848,11	1435,63
848,29	1519,59
848,48	1497,07
848,66	1472,49
848,84	1650,66
849,02	1476,59
849,20	1523,69
849,38	1511,40
849,56	1517,54
849,74	1507,30
849,93	1572,84
850,11	1476,59
850,29	1466,35
850,47	1501,16
850,65	1499,11
850,83	1339,37
851,01	1427,43
851,19	1507,30
851,37	1519,59
851,56	1460,20
851,74	1609,70
851,92	1521,64
852,10	1503,21
852,28	1519,59
852,46	1511,40
852,64	1521,64
852,82	1458,15
853,00	1425,39
853,18	1456,11
853,37	1470,44
853,55	1476,59
853,73	1576,94
853,91	1556,46
854,09	1513,45
854,27	1564,65
854,45	1544,17
854,63	1568,74
854,81	1480,68
854,99	1466,35
855,17	1388,52
855,35	1492,97
855,53	1501,16
855,72	1458,15
855,90	1552,36
856,08	1628,14
856,26	1441,77
856,44	1744,87
856,62	1456,11
856,80	1531,88
856,98	1462,25
857,16	1501,16
857,34	1476,59
857,52	1529,83
857,70	1527,78
857,88	1499,11
858,06	1595,37
858,24	1546,22
858,42	1615,85
858,60	1511,40
858,78	1550,31
858,96	1439,72
859,15	1503,21
859,33	1517,54
859,51	1544,17
859,69	1499,11
859,87	1558,50
860,05	1552,36
860,23	1515,50
860,41	1507,30
860,59	1560,55
860,77	1568,74
860,95	1578,98
861,13	1509,35
861,31	1480,68
861,49	1560,55
861,67	1554,41
861,85	1609,70
862,03	1531,88
862,21	1542,12
862,39	1529,83
862,57	1619,94
862,75	1433,58
862,93	1542,12
863,11	1505,26
863,29	1431,53
863,47	1529,83
863,65	1585,13
863,83	1482,73
864,01	1409,00
864,19	1511,40
864,37	1470,44
864,55	1492,97
864,73	1509,35
864,91	1558,50
865,09	1558,50
865,27	1503,21
865,45	1501,16
865,63	1564,65
865,81	1544,17
865,99	1482,73
866,17	1527,78
866,35	1546,22
866,53	1613,80
866,71	1564,65
866,89	1572,84
867,07	1546,22
867,24	1464,30
867,42	1566,70
867,60	1535,98
867,78	1564,65
867,96	1468,39
868,14	1554,41
868,32	1650,66
868,50	1548,26
868,68	1540,07
868,86	1515,50
869,04	1572,84
869,22	1449,96
869,40	1445,87
869,58	1540,07
869,76	1490,92
869,94	1409,00
870,12	1417,19
870,30	1505,26
870,48	1615,85
870,66	1439,72
870,83	1503,21
871,01	1542,12
871,19	1462,25
871,37	1474,54
871,55	1478,63
871,73	1482,73
871,91	1570,79
872,09	1521,64
872,27	1550,31
872,45	1478,63
872,63	1525,74
872,81	1421,29
872,98	1490,92
873,16	1554,41
873,34	1566,70
873,52	1501,16
873,70	1513,45
873,88	1546,22
874,06	1443,82
874,24	1535,98
874,42	1392,62
874,60	1429,48
874,78	1429,48
874,95	1538,02
875,13	1476,59
875,31	1505,26
875,49	1540,07
875,67	1507,30
875,85	1431,53
876,03	1529,83
876,21	1525,74
876,39	1458,15
876,56	1486,83
876,74	1429,48
876,92	1542,12
877,10	1638,38
877,28	1497,07
877,46	1517,54
877,64	1632,23
877,82	1556,46
877,99	1560,55
878,17	1544,17
878,35	1456,11
878,53	1562,60
878,71	1624,04
878,89	1560,55
879,07	1617,90
879,24	1538,02
879,42	1578,98
879,60	1517,54
879,78	1617,90
879,96	1478,63
880,14	1605,61
880,32	1417,19
880,49	1509,35
880,67	1585,13
880,85	1488,87
881,03	1433,58
881,21	1542,12
881,39	1462,25
881,56	1552,36
881,74	1460,20
881,92	1447,91
882,10	1499,11
882,28	1538,02
882,46	1474,54
882,63	1515,50
882,81	1439,72
882,99	1429,48
883,17	1519,59
883,35	1517,54
883,52	1568,74
883,70	1488,87
883,88	1517,54
884,06	1552,36
884,24	1509,35
884,42	1548,26
884,59	1476,59
884,77	1566,70
884,95	1519,59
885,13	1527,78
885,31	1501,16
885,48	1505,26
885,66	1568,74
885,84	1599,46
886,02	1507,30
886,20	1595,37
886,37	1527,78
886,55	1550,31
886,73	1519,59
886,91	1503,21
887,08	1519,59
887,26	1554,41
887,44	1472,49
887,62	1499,11
887,80	1495,02
887,97	1519,59
888,15	1628,14
888,33	1492,97
888,51	1556,46
888,68	1538,02
888,86	1486,83
889,04	1501,16
889,22	1550,31
889,40	1519,59
889,57	1486,83
889,75	1599,46
889,93	1476,59
890,11	1546,22
890,28	1497,07
890,46	1517,54
890,64	1523,69
890,82	1560,55
890,99	1605,61
891,17	1476,59
891,35	1456,11
891,53	1523,69
891,70	1513,45
891,88	1454,06
892,06	1497,07
892,24	1482,73
892,41	1476,59
892,59	1527,78
892,77	1523,69
892,94	1503,21
893,12	1507,30
893,30	1413,10
893,48	1509,35
893,65	1578,98
893,83	1529,83
894,01	1621,99
894,19	1437,67
894,36	1609,70
894,54	1441,77
894,72	1544,17
894,89	1525,74
895,07	1521,64
895,25	1509,35
895,43	1372,14
895,60	1554,41
895,78	1533,93
895,96	1429,48
896,13	1558,50
896,31	1562,60
896,49	1576,94
896,66	1564,65
896,84	1511,40
897,02	1615,85
897,20	1560,55
897,37	1492,97
897,55	1458,15
897,73	1523,69
897,90	1593,32
898,08	1615,85
898,26	1560,55
898,43	1488,87
898,61	1511,40
898,79	1570,79
898,96	1576,94
899,14	1501,16
899,32	1540,07
899,49	1482,73
899,67	1562,60
899,85	1542,12
900,02	1587,18
900,20	1492,97
900,38	1478,63
900,55	1650,66
900,73	1630,18
900,91	1400,81
901,08	1501,16
901,26	1509,35
901,44	1497,07
901,61	1542,12
901,79	1550,31
901,97	1548,26
902,14	1497,07
902,32	1495,02
902,50	1517,54
902,67	1466,35
902,85	1515,50
903,02	1466,35
903,20	1499,11
903,38	1531,88
903,55	1409,00
903,73	1564,65
903,91	1531,88
904,08	1533,93
904,26	1531,88
904,44	1693,67
904,61	1431,53
904,79	1544,17
904,96	1513,45
905,14	1460,20
905,32	1507,30
905,49	1511,40
905,67	1429,48
905,84	1480,68
906,02	1542,12
906,20	1515,50
906,37	1712,10
906,55	1513,45
906,73	1447,91
906,90	1572,84
907,08	1480,68
907,25	1474,54
907,43	1585,13
907,61	1507,30
907,78	1521,64
907,96	1482,73
908,13	1556,46
908,31	1667,05
908,48	1460,20
908,66	1515,50
908,84	1558,50
909,01	1546,22
909,19	1552,36
909,36	1462,25
909,54	1492,97
909,72	1529,83
909,89	1478,63
910,07	1474,54
910,24	1576,94
910,42	1605,61
910,59	1570,79
910,77	1540,07
910,95	1435,63
911,12	1490,92
911,30	1558,50
911,47	1505,26
911,65	1585,13
911,82	1427,43
912,00	1523,69
912,17	1480,68
912,35	1525,74
912,53	1570,79
912,70	1630,18
912,88	1466,35
913,05	1495,02
913,23	1456,11
913,40	1583,08
913,58	1521,64
913,75	1546,22
913,93	1449,96
914,10	1445,87
914,28	1523,69
914,46	1452,01
914,63	1476,59
914,81	1546,22
914,98	1519,59
915,16	1533,93
915,33	1454,06
915,51	1581,03
915,68	1621,99
915,86	1593,32
916,03	1482,73
916,21	1521,64
916,38	1576,94
916,56	1515,50
916,73	1566,70
916,91	1525,74
917,08	1439,72
917,26	1525,74
917,43	1558,50
917,61	1488,87
917,78	1550,31
917,96	1441,77
918,13	1499,11
918,31	1525,74
918,48	1394,67
918,66	1517,54
918,83	1540,07
919,01	1591,27
919,18	1503,21
919,36	1497,07
919,53	1558,50
919,71	1665,00
919,88	1544,17
920,06	1464,30
920,23	1478,63
920,41	1535,98
920,58	1499,11
920,76	1447,91
920,93	1564,65
921,11	1480,68
921,28	1447,91
921,45	1591,27
921,63	1527,78
921,80	1509,35
921,98	1484,78
922,15	1470,44
922,33	1419,24
922,50	1535,98
922,68	1542,12
922,85	1538,02
923,03	1482,73
923,20	1564,65
923,38	1486,83
923,55	1605,61
923,72	1525,74
923,90	1673,19
924,07	1507,30
924,25	1503,21
924,42	1646,57
924,60	1531,88
924,77	1517,54
924,95	1564,65
925,12	1562,60
925,29	1617,90
925,47	1527,78
925,64	1454,06
925,82	1527,78
925,99	1474,54
926,17	1564,65
926,34	1497,07
926,51	1503,21
926,69	1572,84
926,86	1599,46
927,04	1499,11
927,21	1480,68
927,38	1427,43
927,56	1484,78
927,73	1550,31
927,91	1527,78
928,08	1648,61
928,25	1517,54
928,43	1544,17
928,60	1456,11
928,78	1552,36
928,95	1525,74
929,12	1531,88
929,30	1533,93
929,47	1527,78
929,65	1423,34
929,82	1474,54
929,99	1566,70
930,17	1398,76
930,34	1601,51
930,52	1517,54
930,69	1515,50
930,86	1540,07
931,04	1503,21
931,21	1474,54
931,38	1495,02
931,56	1550,31
931,73	1638,38
931,91	1523,69
932,08	1558,50
932,25	1589,22
932,43	1484,78
932,60	1591,27
932,77	1540,07
932,95	1484,78
933,12	1505,26
933,29	1476,59
933,47	1599,46
933,64	1449,96
933,82	1519,59
933,99	1527,78
934,16	1499,11
934,34	1554,41
934,51	1507,30
934,68	1576,94
934,86	1529,83
935,03	1435,63
935,20	1576,94
935,38	1495,02
935,55	1548,26
935,72	1525,74
935,90	1495,02
936,07	1490,92
936,24	1511,40
936,42	1572,84
936,59	1546,22
936,76	1634,28
936,94	1439,72
937,11	1544,17
937,28	1495,02
937,46	1505,26
937,63	1626,09
937,80	1503,21
937,97	1568,74
938,15	1497,07
938,32	1468,39
938,49	1634,28
938,67	1505,26
938,84	1566,70
939,01	1527,78
939,19	1515,50
939,36	1527,78
939,53	1505,26
939,70	1603,56
939,88	1572,84
940,05	1574,89
940,22	1562,60
940,40	1654,76
940,57	1556,46
940,74	1462,25
940,92	1505,26
941,09	1492,97
941,26	1515,50
941,43	1603,56
941,61	1482,73
941,78	1480,68
941,95	1591,27
942,12	1558,50
942,30	1435,63
942,47	1550,31
942,64	1396,71
942,82	1581,03
942,99	1658,85
943,16	1523,69
943,33	1503,21
943,51	1413,10
943,68	1538,02
943,85	1511,40
944,02	1521,64
944,20	1529,83
944,37	1433,58
944,54	1519,59
944,71	1568,74
944,89	1523,69
945,06	1472,49
945,23	1525,74
945,40	1654,76
945,58	1519,59
945,75	1466,35
945,92	1685,48
946,09	1521,64
946,27	1597,42
946,44	1456,11
946,61	1562,60
946,78	1470,44
946,95	1495,02
947,13	1519,59
947,30	1515,50
947,47	1482,73
947,64	1478,63
947,82	1478,63
947,99	1497,07
948,16	1550,31
948,33	1595,37
948,50	1523,69
948,68	1546,22
948,85	1509,35
949,02	1650,66
949,19	1495,02
949,36	1507,30
949,54	1533,93
949,71	1619,94
949,88	1499,11
950,05	1515,50
950,22	1515,50
950,40	1554,41
950,57	1390,57
950,74	1677,29
950,91	1492,97
951,08	1495,02
951,26	1499,11
951,43	1572,84
951,60	1533,93
951,77	1603,56
951,94	1597,42
952,11	1497,07
952,29	1597,42
952,46	1378,28
952,63	1572,84
952,80	1564,65
952,97	1560,55
953,15	1558,50
953,32	1482,73
953,49	1464,30
953,66	1556,46
953,83	1490,92
954,00	1468,39
954,17	1552,36
954,35	1665,00
954,52	1501,16
954,69	1566,70
954,86	1624,04
955,03	1521,64
955,20	1566,70
955,38	1525,74
955,55	1560,55
955,72	1497,07
955,89	1421,29
956,06	1486,83
956,23	1554,41
956,40	1505,26
956,58	1472,49
956,75	1533,93
956,92	1486,83
957,09	1452,01
957,26	1517,54
957,43	1523,69
957,60	1511,40
957,77	1468,39
957,95	1521,64
958,12	1552,36
958,29	1599,46
958,46	1570,79
958,63	1484,78
958,80	1548,26
958,97	1597,42
959,14	1499,11
959,31	1511,40
959,49	1501,16
959,66	1533,93
959,83	1466,35
960,00	1523,69
960,17	1605,61
960,34	1458,15
960,51	1548,26
960,68	1558,50
960,85	1591,27
961,02	1556,46
961,20	1480,68
961,37	1474,54
961,54	1544,17
961,71	1562,60
961,88	1601,51
962,05	1468,39
962,22	1542,12
962,39	1546,22
962,56	1527,78
962,73	1454,06
962,90	1482,73
963,07	1554,41
963,24	1468,39
963,42	1452,01
963,59	1548,26
963,76	1542,12
963,93	1619,94
964,10	1542,12
964,27	1578,98
964,44	1636,33
964,61	1589,22
964,78	1492,97
964,95	1488,87
965,12	1486,83
965,29	1593,32
965,46	1460,20
965,63	1591,27
965,80	1552,36
965,97	1368,04
966,14	1603,56
966,31	1515,50
966,48	1642,47
966,66	1521,64
966,83	1480,68
967,00	1507,30
967,17	1562,60
967,34	1581,03
967,51	1581,03
967,68	1501,16
967,85	1509,35
968,02	1558,50
968,19	1421,29
968,36	1509,35
968,53	1431,53
968,70	1593,32
968,87	1546,22
969,04	1562,60
969,21	1480,68
969,38	1615,85
969,55	1492,97
969,72	1568,74
969,89	1517,54
970,06	1417,19
970,23	1492,97
970,40	1517,54
970,57	1499,11
970,74	1488,87
970,91	1558,50
971,08	1538,02
971,25	1470,44
971,42	1501,16
971,59	1497,07
971,76	1570,79
971,93	1628,14
972,10	1525,74
972,27	1474,54
972,44	1503,21
972,61	1515,50
972,78	1482,73
972,95	1533,93
973,12	1599,46
973,29	1535,98
973,46	1540,07
973,63	1468,39
973,80	1562,60
973,97	1517,54
974,14	1550,31
974,30	1550,31
974,47	1595,37
974,64	1525,74
974,81	1574,89
974,98	1581,03
975,15	1495,02
975,32	1587,18
975,49	1568,74
975,66	1478,63
975,83	1626,09
976,00	1589,22
976,17	1488,87
976,34	1566,70
976,51	1507,30
976,68	1523,69
976,85	1529,83
977,02	1552,36
977,19	1507,30
977,36	1476,59
977,52	1634,28
977,69	1570,79
977,86	1662,95
978,03	1540,07
978,20	1572,84
978,37	1544,17
978,54	1572,84
978,71	1628,14
978,88	1603,56
979,05	1484,78
979,22	1505,26
979,39	1468,39
979,56	1507,30
979,72	1499,11
979,89	1517,54
980,06	1554,41
980,23	1587,18
980,40	1531,88
980,57	1466,35
980,74	1540,07
980,91	1445,87
981,08	1568,74
981,25	1529,83
981,41	1548,26
981,58	1501,16
981,75	1443,82
981,92	1605,61
982,09	1576,94
982,26	1552,36
982,43	1421,29
982,60	1650,66
982,77	1544,17
982,93	1513,45
983,10	1517,54
983,27	1445,87
983,44	1552,36
983,61	1558,50
983,78	1617,90
983,95	1458,15
984,11	1503,21
984,28	1603,56
984,45	1531,88
984,62	1560,55
984,79	1470,44
984,96	1540,07
985,13	1482,73
985,30	1505,26
985,46	1513,45
985,63	1497,07
985,80	1550,31
985,97	1445,87
986,14	1466,35
986,31	1497,07
986,47	1484,78
986,64	1419,24
986,81	1468,39
986,98	1535,98
987,15	1468,39
987,32	1519,59
987,48	1501,16
987,65	1480,68
987,82	1501,16
987,99	1570,79
988,16	1964,00
988,33	1683,43
988,49	1517,54
988,66	1525,74
988,83	1597,42
989,00	1601,51
989,17	1447,91
989,34	1492,97
989,50	1556,46
989,67	1482,73
989,84	1497,07
990,01	1466,35
990,18	1574,89
990,34	1585,13
990,51	1490,92
990,68	1531,88
990,85	1591,27
991,02	1509,35
991,18	1458,15
991,35	1478,63
991,52	1548,26
991,69	1447,91
991,86	1585,13
992,02	1511,40
992,19	1501,16
992,36	1521,64
992,53	1474,54
992,69	1552,36
992,86	1513,45
993,03	1621,99
993,20	1462,25
993,37	1546,22
993,53	1607,66
993,70	1468,39
993,87	1429,48
994,04	1523,69
994,20	1476,59
994,37	1583,08
994,54	1529,83
994,71	1441,77
994,87	1550,31
995,04	1568,74
995,21	1554,41
995,38	1538,02
995,55	1513,45
995,71	1525,74
995,88	1517,54
996,05	1550,31
996,22	1533,93
996,38	1552,36
996,55	1554,41
996,72	1472,49
996,88	1646,57
997,05	2283,49
997,22	1486,83
997,39	1454,06
997,55	1624,04
997,72	1546,22
997,89	1460,20
998,06	1447,91
998,22	1556,46
998,39	1515,50
998,56	1480,68
998,73	1468,39
998,89	1550,31
999,06	1529,83
999,23	1515,50
999,39	1472,49
999,56	1488,87
999,73	1437,67
999,90	1464,30
1000,06	1597,42
1000,23	1533,93
1000,40	1515,50
1000,56	1572,84
1000,73	1505,26
1000,90	1550,31
1001,06	1495,02
1001,23	1548,26
1001,40	1603,56
1001,57	1574,89
1001,73	1466,35
1001,90	1441,77
1002,07	1535,98
1002,23	1562,60
1002,40	1474,54
1002,57	1527,78
1002,73	1464,30
1002,90	1490,92
1003,07	1531,88
1003,23	1478,63
1003,40	1509,35
1003,57	1581,03
1003,73	1458,15
1003,90	1566,70
1004,07	1509,35
1004,23	1447,91
1004,40	1564,65
1004,57	1542,12
1004,73	1460,20
1004,90	1503,21
1005,07	1480,68
1005,23	1497,07
1005,40	1449,96
1005,57	1468,39
1005,73	1572,84
1005,90	1515,50
1006,07	1630,18
1006,23	1495,02
1006,40	1501,16
1006,57	1433,58
1006,73	1517,54
1006,90	1447,91
1007,06	1513,45
1007,23	1527,78
1007,40	1480,68
1007,56	1572,84
1007,73	1673,19
1007,90	1531,88
1008,06	1503,21
1008,23	1472,49
1008,40	1589,22
1008,56	1484,78
1008,73	1558,50
1008,89	1574,89
1009,06	1648,61
1009,23	1476,59
1009,39	1531,88
1009,56	1458,15
1009,72	1525,74
1009,89	1546,22
1010,06	1509,35
1010,22	1490,92
1010,39	1523,69
1010,55	1533,93
1010,72	1558,50
1010,89	1499,11
1011,05	1556,46
1011,22	1466,35
1011,38	1490,92
1011,55	1486,83
1011,72	1507,30
1011,88	1544,17
1012,05	1593,32
1012,21	1437,67
1012,38	1554,41
1012,55	1529,83
1012,71	1417,19
1012,88	1515,50
1013,04	1527,78
1013,21	1462,25
1013,37	1562,60
1013,54	1505,26
1013,71	1533,93
1013,87	1576,94
1014,04	1630,18
1014,20	1558,50
1014,37	1533,93
1014,53	1546,22
1014,70	1501,16
1014,87	1460,20
1015,03	1648,61
1015,20	1468,39
1015,36	1507,30
1015,53	1564,65
1015,69	1515,50
1015,86	1554,41
1016,02	1492,97
1016,19	1544,17
1016,36	1521,64
1016,52	1503,21
1016,69	1603,56
1016,85	1572,84
1017,02	1617,90
1017,18	1443,82
1017,35	1492,97
1017,51	1454,06
1017,68	1591,27
1017,84	1421,29
1018,01	1525,74
1018,17	1550,31
1018,34	1619,94
1018,50	1542,12
1018,67	1501,16
1018,84	1505,26
1019,00	1492,97
1019,17	1556,46
1019,33	1497,07
1019,50	1576,94
1019,66	1597,42
1019,83	1478,63
1019,99	1626,09
1020,16	1468,39
1020,32	1484,78
1020,49	1570,79
1020,65	1527,78
1020,82	1488,87
1020,98	1531,88
1021,15	1468,39
1021,31	1511,40
1021,48	1525,74
1021,64	1540,07
1021,81	1576,94
1021,97	1476,59
1022,14	1523,69
1022,30	1548,26
1022,47	1488,87
1022,63	1501,16
1022,79	1533,93
1022,96	1544,17
1023,12	1574,89
1023,29	1550,31
1023,45	1548,26
1023,62	1529,83
1023,78	1525,74
1023,95	1538,02
1024,11	1544,17
1024,28	1515,50
1024,44	1478,63
1024,61	1419,24
1024,77	1595,37
1024,94	1521,64
1025,10	1546,22
1025,26	1490,92
1025,43	1587,18
1025,59	1482,73
1025,76	1576,94
1025,92	1517,54
1026,09	1447,91
1026,25	1578,98
1026,42	1529,83
1026,58	1484,78
1026,74	1535,98
1026,91	1546,22
1027,07	1540,07
1027,24	1619,94
1027,40	1511,40
1027,57	1535,98
1027,73	1499,11
1027,90	1578,98
1028,06	1521,64
1028,22	1572,84
1028,39	1562,60
1028,55	1581,03
1028,72	1521,64
1028,88	1634,28
1029,04	1531,88
1029,21	1562,60
1029,37	1476,59
1029,54	1533,93
1029,70	1484,78
1029,87	1476,59
1030,03	1443,82
1030,19	1648,61
1030,36	1488,87
1030,52	1546,22
1030,69	1449,96
1030,85	1443,82
1031,01	1535,98
1031,18	1490,92
1031,34	1517,54
1031,50	1587,18
1031,67	1572,84
1031,83	1492,97
1032,00	1474,54
1032,16	1542,12
1032,32	1513,45
1032,49	1628,14
1032,65	1552,36
1032,82	1546,22
1032,98	1492,97
1033,14	1546,22
1033,31	1605,61
1033,47	1558,50
1033,63	1503,21
1033,80	1523,69
1033,96	1527,78
1034,13	1576,94
1034,29	1544,17
1034,45	1499,11
1034,62	1492,97
1034,78	1566,70
1034,94	1419,24
1035,11	1615,85
1035,27	1470,44
1035,43	1548,26
1035,60	1599,46
1035,76	1482,73
1035,92	1495,02
1036,09	1413,10
1036,25	1523,69
1036,41	1531,88
1036,58	1578,98
1036,74	1576,94
1036,90	1572,84
1037,07	1482,73
1037,23	1546,22
1037,39	1687,53
1037,56	1478,63
1037,72	1564,65
1037,88	1576,94
1038,05	1523,69
1038,21	1566,70
1038,37	1452,01
1038,54	1540,07
1038,70	1605,61
1038,86	1521,64
1039,03	1583,08
1039,19	1552,36
1039,35	1531,88
1039,52	1474,54
1039,68	1445,87
1039,84	1478,63
1040,00	1552,36
1040,17	1570,79
1040,33	1490,92
1040,49	1572,84
1040,66	1521,64
1040,82	1535,98
1040,98	1495,02
1041,15	1568,74
1041,31	1484,78
1041,47	1570,79
1041,63	1449,96
1041,80	1458,15
1041,96	1628,14
1042,12	1456,11
1042,29	1583,08
1042,45	1587,18
1042,61	1452,01
1042,77	1552,36
1042,94	1613,80
1043,10	1683,43
1043,26	1400,81
1043,42	1560,55
1043,59	1609,70
1043,75	1646,57
1043,91	1554,41
1044,07	1501,16
1044,24	1523,69
1044,40	1486,83
>>>>>End Processed Spectral Data<<<<<
