SpectraSuite Data File
++++++++++++++++++++++++++++++++++++
Date: Wed Sep 25 10:29:58 GMT-03:00 2024
User: Lavfis
Dark Spectrum Present: No
Reference Spectrum Present: No
Number of Sampled Component Spectra: 1
Spectrometers: USB4F02573
Integration Time (usec): 100000 (USB4F02573)
Spectra Averaged: 1 (USB4F02573)
Boxcar Smoothing: 0 (USB4F02573)
Correct for Electrical Dark: No (USB4F02573)
Strobe/Lamp Enabled: No (USB4F02573)
Correct for Detector Non-linearity: No (USB4F02573)
Correct for Stray Light: No (USB4F02573)
Number of Pixels in Processed Spectrum: 3648
>>>>>Begin Processed Spectral Data<<<<<
345,22	1353,71
345,44	1353,71
345,66	1353,71
345,88	1359,85
346,10	1368,04
346,32	1544,17
346,54	1492,97
346,75	1486,83
346,97	1515,50
347,19	1538,02
347,41	1550,31
347,63	1544,17
347,85	1609,70
348,07	1589,22
348,29	1644,52
348,51	1542,12
348,73	1478,63
348,95	1488,87
349,16	1468,39
349,38	1523,69
349,60	1527,78
349,82	1523,69
350,04	1533,93
350,26	1599,46
350,48	1544,17
350,70	1538,02
350,92	1521,64
351,14	1525,74
351,35	1607,66
351,57	1570,79
351,79	1507,30
352,01	1548,26
352,23	1550,31
352,45	1550,31
352,67	1564,65
352,89	1511,40
353,10	1505,26
353,32	1562,60
353,54	1505,26
353,76	1546,22
353,98	1581,03
354,20	1566,70
354,42	1513,45
354,64	1560,55
354,85	1583,08
355,07	1511,40
355,29	1554,41
355,51	1482,73
355,73	1554,41
355,95	1486,83
356,17	1624,04
356,38	1497,07
356,60	1509,35
356,82	1581,03
357,04	1474,54
357,26	1597,42
357,48	1619,94
357,69	1638,38
357,91	1523,69
358,13	1570,79
358,35	1591,27
358,57	1560,55
358,79	1654,76
359,01	1538,02
359,22	1566,70
359,44	1574,89
359,66	1527,78
359,88	1482,73
360,10	1529,83
360,32	1427,43
360,53	1538,02
360,75	1613,80
360,97	1527,78
361,19	1585,13
361,41	1560,55
361,62	1564,65
361,84	1626,09
362,06	1533,93
362,28	1454,06
362,50	1589,22
362,72	1566,70
362,93	1499,11
363,15	1515,50
363,37	1535,98
363,59	1576,94
363,81	1492,97
364,02	1617,90
364,24	1538,02
364,46	1576,94
364,68	1460,20
364,90	1630,18
365,11	1599,46
365,33	1681,38
365,55	1449,96
365,77	1560,55
365,99	1495,02
366,20	1669,09
366,42	1531,88
366,64	1478,63
366,86	1628,14
367,07	1617,90
367,29	1548,26
367,51	1507,30
367,73	1449,96
367,95	1562,60
368,16	1564,65
368,38	1566,70
368,60	1542,12
368,82	1574,89
369,03	1701,86
369,25	1597,42
369,47	1562,60
369,69	1511,40
369,91	1581,03
370,12	1548,26
370,34	1519,59
370,56	1544,17
370,78	1607,66
370,99	1634,28
371,21	1554,41
371,43	1499,11
371,65	1517,54
371,86	1570,79
372,08	1601,51
372,30	1495,02
372,52	1642,47
372,73	1492,97
372,95	1634,28
373,17	1535,98
373,39	1624,04
373,60	1519,59
373,82	1540,07
374,04	1484,78
374,26	1548,26
374,47	1542,12
374,69	1540,07
374,91	1556,46
375,12	1562,60
375,34	1439,72
375,56	1560,55
375,78	1460,20
375,99	1488,87
376,21	1691,62
376,43	1564,65
376,65	1654,76
376,86	1611,75
377,08	1425,39
377,30	1634,28
377,51	1486,83
377,73	1499,11
377,95	1484,78
378,17	1542,12
378,38	1572,84
378,60	1558,50
378,82	1607,66
379,03	1656,81
379,25	1544,17
379,47	1613,80
379,68	1478,63
379,90	1482,73
380,12	1574,89
380,34	1517,54
380,55	1560,55
380,77	1624,04
380,99	1542,12
381,20	1603,56
381,42	1519,59
381,64	1501,16
381,85	1609,70
382,07	1603,56
382,29	1529,83
382,50	1593,32
382,72	1619,94
382,94	1503,21
383,15	1544,17
383,37	1515,50
383,59	1599,46
383,80	1443,82
384,02	1593,32
384,24	1529,83
384,45	1617,90
384,67	1609,70
384,89	1458,15
385,10	1523,69
385,32	1583,08
385,54	1597,42
385,75	1538,02
385,97	1609,70
386,19	1677,29
386,40	1581,03
386,62	1533,93
386,84	1630,18
387,05	1523,69
387,27	1515,50
387,49	1482,73
387,70	1624,04
387,92	1548,26
388,14	1552,36
388,35	1556,46
388,57	1519,59
388,79	1613,80
389,00	1521,64
389,22	1546,22
389,43	1544,17
389,65	1589,22
389,87	1531,88
390,08	1503,21
390,30	1583,08
390,52	1636,33
390,73	1585,13
390,95	1472,49
391,17	1587,18
391,38	1540,07
391,60	1615,85
391,81	1570,79
392,03	1523,69
392,25	1462,25
392,46	1470,44
392,68	1566,70
392,89	1441,77
393,11	1578,98
393,33	1570,79
393,54	1630,18
393,76	1642,47
393,98	1511,40
394,19	1566,70
394,41	1490,92
394,62	1415,15
394,84	1540,07
395,06	1443,82
395,27	1546,22
395,49	1523,69
395,70	1644,52
395,92	1523,69
396,13	1521,64
396,35	1576,94
396,57	1499,11
396,78	1484,78
397,00	1452,01
397,21	1558,50
397,43	1566,70
397,65	1542,12
397,86	1628,14
398,08	1585,13
398,29	1621,99
398,51	1519,59
398,72	1587,18
398,94	1654,76
399,16	1619,94
399,37	1595,37
399,59	1601,51
399,80	1533,93
400,02	1523,69
400,23	1572,84
400,45	1581,03
400,67	1662,95
400,88	1576,94
401,10	1511,40
401,31	1513,45
401,53	1501,16
401,74	1529,83
401,96	1449,96
402,17	1517,54
402,39	1529,83
402,61	1542,12
402,82	1495,02
403,04	1603,56
403,25	1468,39
403,47	1593,32
403,68	1495,02
403,90	1644,52
404,11	1492,97
404,33	1535,98
404,54	1517,54
404,76	1533,93
404,97	1544,17
405,19	1589,22
405,41	1511,40
405,62	1581,03
405,84	1558,50
406,05	1621,99
406,27	1445,87
406,48	1628,14
406,70	1535,98
406,91	1503,21
407,13	1546,22
407,34	1468,39
407,56	1675,24
407,77	1585,13
407,99	1578,98
408,20	1652,71
408,42	1548,26
408,63	1546,22
408,85	1531,88
409,06	1591,27
409,28	1675,24
409,49	1482,73
409,71	1544,17
409,92	1572,84
410,14	1538,02
410,35	1677,29
410,57	1648,61
410,78	1531,88
411,00	1562,60
411,21	1585,13
411,43	1531,88
411,64	1531,88
411,86	1519,59
412,07	1568,74
412,29	1578,98
412,50	1576,94
412,72	1589,22
412,93	1667,05
413,15	1572,84
413,36	1533,93
413,58	1644,52
413,79	1564,65
414,01	1544,17
414,22	1523,69
414,43	1599,46
414,65	1576,94
414,86	1531,88
415,08	1615,85
415,29	1656,81
415,51	1576,94
415,72	1548,26
415,94	1548,26
416,15	1531,88
416,37	1640,42
416,58	1423,34
416,80	1562,60
417,01	1468,39
417,22	1578,98
417,44	1585,13
417,65	1523,69
417,87	1564,65
418,08	1656,81
418,30	1540,07
418,51	1607,66
418,73	1546,22
418,94	1482,73
419,15	1552,36
419,37	1523,69
419,58	1458,15
419,80	1497,07
420,01	1572,84
420,23	1562,60
420,44	1566,70
420,65	1603,56
420,87	1583,08
421,08	1529,83
421,30	1609,70
421,51	1464,30
421,73	1503,21
421,94	1484,78
422,15	1480,68
422,37	1550,31
422,58	1449,96
422,80	1535,98
423,01	1523,69
423,22	1456,11
423,44	1503,21
423,65	1538,02
423,87	1482,73
424,08	1628,14
424,29	1533,93
424,51	1474,54
424,72	1621,99
424,94	1413,10
425,15	1540,07
425,36	1552,36
425,58	1572,84
425,79	1617,90
426,01	1648,61
426,22	1533,93
426,43	1619,94
426,65	1515,50
426,86	1490,92
427,08	1550,31
427,29	1542,12
427,50	1515,50
427,72	1552,36
427,93	1468,39
428,14	1511,40
428,36	1548,26
428,57	1564,65
428,79	1503,21
429,00	1578,98
429,21	1605,61
429,43	1581,03
429,64	1624,04
429,85	1480,68
430,07	1654,76
430,28	1490,92
430,49	1492,97
430,71	1558,50
430,92	1552,36
431,14	1490,92
431,35	1609,70
431,56	1562,60
431,78	1556,46
431,99	1605,61
432,20	1550,31
432,42	1486,83
432,63	1613,80
432,84	1527,78
433,06	1576,94
433,27	1591,27
433,48	1591,27
433,70	1605,61
433,91	1669,09
434,12	1454,06
434,34	1615,85
434,55	1615,85
434,76	1531,88
434,98	1601,51
435,19	1554,41
435,40	1423,34
435,62	1533,93
435,83	1701,86
436,04	1507,30
436,26	1599,46
436,47	1552,36
436,68	1439,72
436,90	1560,55
437,11	1578,98
437,32	1503,21
437,54	1527,78
437,75	1531,88
437,96	1566,70
438,17	1574,89
438,39	1548,26
438,60	1593,32
438,81	1540,07
439,03	1583,08
439,24	1497,07
439,45	1646,57
439,67	1462,25
439,88	1554,41
440,09	1511,40
440,30	1583,08
440,52	1484,78
440,73	1544,17
440,94	1535,98
441,16	1509,35
441,37	1550,31
441,58	1503,21
441,80	1538,02
442,01	1505,26
442,22	1587,18
442,43	1488,87
442,65	1619,94
442,86	1587,18
443,07	1589,22
443,28	1476,59
443,50	1562,60
443,71	1517,54
443,92	1562,60
444,14	1490,92
444,35	1552,36
444,56	1556,46
444,77	1445,87
444,99	1533,93
445,20	1515,50
445,41	1599,46
445,62	1523,69
445,84	1630,18
446,05	1544,17
446,26	1632,23
446,47	1677,29
446,69	1464,30
446,90	1521,64
447,11	1585,13
447,32	1531,88
447,54	1501,16
447,75	1503,21
447,96	1572,84
448,17	1581,03
448,39	1562,60
448,60	1519,59
448,81	1652,71
449,02	1511,40
449,23	1507,30
449,45	1538,02
449,66	1570,79
449,87	1531,88
450,08	1578,98
450,30	1538,02
450,51	1497,07
450,72	1585,13
450,93	1492,97
451,15	1607,66
451,36	1578,98
451,57	1576,94
451,78	1531,88
451,99	1593,32
452,21	1546,22
452,42	1525,74
452,63	1488,87
452,84	1542,12
453,05	1548,26
453,27	1486,83
453,48	1660,90
453,69	1552,36
453,90	1626,09
454,11	1527,78
454,33	1556,46
454,54	1527,78
454,75	1464,30
454,96	1548,26
455,17	1525,74
455,39	1511,40
455,60	1443,82
455,81	1517,54
456,02	1597,42
456,23	1593,32
456,45	1581,03
456,66	1585,13
456,87	1533,93
457,08	1572,84
457,29	1687,53
457,50	1484,78
457,72	1542,12
457,93	1550,31
458,14	1556,46
458,35	1589,22
458,56	1644,52
458,77	1531,88
458,99	1578,98
459,20	1527,78
459,41	1597,42
459,62	1603,56
459,83	1611,75
460,04	1540,07
460,26	1546,22
460,47	1552,36
460,68	1540,07
460,89	1544,17
461,10	1572,84
461,31	1581,03
461,52	1513,45
461,74	1697,77
461,95	1476,59
462,16	1542,12
462,37	1638,38
462,58	1591,27
462,79	1650,66
463,00	1601,51
463,22	1697,77
463,43	1525,74
463,64	1578,98
463,85	1609,70
464,06	1603,56
464,27	1572,84
464,48	1595,37
464,70	1525,74
464,91	1519,59
465,12	1521,64
465,33	1533,93
465,54	1675,24
465,75	1650,66
465,96	1671,14
466,17	1562,60
466,38	1572,84
466,60	1605,61
466,81	1564,65
467,02	1589,22
467,23	1652,71
467,44	1578,98
467,65	1572,84
467,86	1728,49
468,07	1599,46
468,28	1591,27
468,50	1564,65
468,71	1712,10
468,92	1589,22
469,13	1624,04
469,34	1640,42
469,55	1546,22
469,76	1470,44
469,97	1611,75
470,18	1568,74
470,39	1601,51
470,60	1576,94
470,82	1681,38
471,03	1499,11
471,24	1652,71
471,45	1597,42
471,66	1593,32
471,87	1517,54
472,08	1697,77
472,29	1599,46
472,50	1640,42
472,71	1605,61
472,92	1593,32
473,13	1589,22
473,34	1628,14
473,55	1564,65
473,77	1667,05
473,98	1621,99
474,19	1640,42
474,40	1527,78
474,61	1632,23
474,82	1578,98
475,03	1617,90
475,24	1572,84
475,45	1611,75
475,66	1675,24
475,87	1585,13
476,08	1597,42
476,29	1730,53
476,50	1763,30
476,71	1697,77
476,92	1689,57
477,13	1689,57
477,34	1642,47
477,55	1675,24
477,76	1705,96
477,97	1656,81
478,18	1636,33
478,40	1626,09
478,61	1654,76
478,82	1636,33
479,03	1644,52
479,24	1744,87
479,45	1681,38
479,66	1759,21
479,87	1736,68
480,08	1624,04
480,29	1693,67
480,50	1828,84
480,71	1673,19
480,92	1687,53
481,13	1695,72
481,34	1697,77
481,55	1640,42
481,76	1716,20
481,97	1753,06
482,18	1791,97
482,39	1652,71
482,60	1851,36
482,81	1755,11
483,02	1769,44
483,23	1888,23
483,44	1841,12
483,65	1816,55
483,86	1859,56
484,07	1880,04
484,28	1877,99
484,49	1849,32
484,70	1920,99
484,91	1773,54
485,12	1865,70
485,33	1968,10
485,54	1931,23
485,75	1914,85
485,96	1996,77
486,17	1945,57
486,38	1863,65
486,59	2033,63
486,80	2066,40
487,01	2017,25
487,21	1937,38
487,42	1976,29
487,63	2125,79
487,84	2088,93
488,05	2166,75
488,26	2281,44
488,47	2115,55
488,68	2013,15
488,89	2203,61
489,10	2164,70
489,31	2168,80
489,52	2170,85
489,73	2232,29
489,94	2336,73
490,15	2246,62
490,36	2291,68
490,57	2242,53
490,78	2306,01
490,99	2295,77
491,20	2297,82
491,41	2463,71
491,61	2537,43
491,82	2387,93
492,03	2480,09
492,24	2488,28
492,45	2484,19
492,66	2500,57
492,87	2516,95
493,08	2617,30
493,29	2551,77
493,50	2580,44
493,71	2697,17
493,92	2670,55
494,13	2727,89
494,34	2676,70
494,54	2832,34
494,75	2785,24
494,96	2889,68
495,17	2947,03
495,38	2875,35
495,59	2803,67
495,80	3065,81
496,01	3026,90
496,22	3123,15
496,43	3053,52
496,64	3166,16
496,84	3106,77
497,05	3309,52
497,26	3362,76
497,47	3256,27
497,68	3395,53
497,89	3321,81
498,10	3536,84
498,31	3491,79
498,52	3629,00
498,72	3579,85
498,93	3700,68
499,14	3641,29
499,35	3729,35
499,56	3790,79
499,77	3977,16
499,98	3833,80
500,19	3844,04
500,40	3942,34
500,60	3925,96
500,81	4212,67
501,02	4265,92
501,23	4351,93
501,44	4321,21
501,65	4407,23
501,86	4335,55
502,06	4489,15
502,27	4464,57
502,48	4634,55
502,69	4710,33
502,90	4761,53
503,11	4810,68
503,32	4814,77
503,53	4876,21
503,73	4927,41
503,94	4992,95
504,15	5070,77
504,36	5115,83
504,57	5236,66
504,78	5275,57
504,98	5472,17
505,19	5580,71
505,40	5590,95
505,61	5617,58
505,82	5666,73
506,03	5820,33
506,23	5758,89
506,44	5969,83
506,65	6033,32
506,86	6084,52
507,07	6109,09
507,28	6229,92
507,48	6102,95
507,69	6229,92
507,90	6414,24
508,11	6463,39
508,32	6535,07
508,53	6666,14
508,73	6506,40
508,94	6565,79
509,15	6737,82
509,36	6817,69
509,57	6903,70
509,77	7061,40
509,98	7108,50
510,19	7014,29
510,40	7356,30
510,61	7282,58
510,81	7427,98
511,02	7565,20
511,23	7622,54
511,44	7430,03
511,65	7673,74
511,85	7745,42
512,06	7667,60
512,27	7698,31
512,48	7876,49
512,69	7909,26
512,89	8036,23
513,10	8112,00
513,31	8079,24
513,52	8114,05
513,73	8181,64
513,93	8189,83
514,14	8284,03
514,35	8417,15
514,56	8433,54
514,76	8224,64
514,97	8654,72
515,18	8585,08
515,39	8636,28
515,60	8605,56
515,80	8798,07
516,01	8777,59
516,22	8603,52
516,43	8710,01
516,63	8714,11
516,84	8871,80
517,05	8892,28
517,26	8857,46
517,46	8945,53
517,67	8916,86
517,88	8830,84
518,09	8689,53
518,29	8877,94
518,50	8896,38
518,71	8888,18
518,92	9002,87
519,12	8849,27
519,33	9076,60
519,54	8931,19
519,75	8916,86
519,95	9099,13
520,16	9070,45
520,37	8773,50
520,57	8884,09
520,78	9049,97
520,99	8892,28
521,20	8888,18
521,40	8896,38
521,61	9017,21
521,82	8873,85
522,03	8705,92
522,23	8884,09
522,44	8914,81
522,65	8630,14
522,85	8785,79
523,06	8953,72
523,27	8560,51
523,48	8669,05
523,68	8630,14
523,89	8658,81
524,10	8654,72
524,30	8667,00
524,51	8507,26
524,72	8580,99
524,93	8359,81
525,13	8552,32
525,34	8501,12
525,55	8478,59
525,75	8447,87
525,96	8159,11
526,17	8183,68
526,37	8259,46
526,58	8126,34
526,79	8116,10
526,99	7909,26
527,20	8013,70
527,41	7815,05
527,62	7987,08
527,82	7872,39
528,03	7585,68
528,24	7638,92
528,44	7743,37
528,65	7456,65
528,86	7563,15
529,06	7636,88
529,27	7514,00
529,48	7389,07
529,68	7384,98
529,89	7524,24
530,10	7303,06
530,30	7202,71
530,51	6997,91
530,72	7098,26
530,92	7004,05
531,13	7077,78
531,34	7026,58
531,54	6922,13
531,75	6987,67
531,96	6977,43
532,16	6748,06
532,37	6893,46
532,57	6823,83
532,78	6758,30
532,99	6594,46
533,19	6752,15
533,40	6709,15
533,61	6369,18
533,81	6463,39
534,02	6432,67
534,23	6442,91
534,43	6393,76
534,64	6371,23
534,84	6268,83
535,05	6236,06
535,26	6215,59
535,46	6234,02
535,67	6166,43
535,88	6027,17
536,08	6004,64
536,29	5875,62
536,49	5912,49
536,70	5810,09
536,91	5732,26
537,11	5885,86
537,32	5648,30
537,53	5707,69
537,73	5771,18
537,94	5334,96
538,14	5480,36
538,35	5412,78
538,56	5345,20
538,76	5330,86
538,97	5246,90
539,17	5171,12
539,38	5463,98
539,59	5216,18
539,79	5173,17
540,00	5171,12
540,20	4927,41
540,41	5119,92
540,62	5083,06
540,82	4947,89
541,03	4745,14
541,23	4769,72
541,44	4796,34
541,64	4747,19
541,85	4722,62
542,06	4693,94
542,26	4566,97
542,47	4609,98
542,67	4630,46
542,88	4503,48
543,08	4681,66
543,29	4542,39
543,50	4569,02
543,70	4450,24
543,91	4444,09
544,11	4366,27
544,32	4419,52
544,52	4325,31
544,73	4255,68
544,94	4353,98
545,14	4110,27
545,35	4143,04
545,55	4175,81
545,76	4167,62
545,96	3954,63
546,17	4218,82
546,37	4097,99
546,58	4067,27
546,78	3979,20
546,99	3962,82
547,20	4102,08
547,40	4054,98
547,61	3885,00
547,81	3801,03
548,02	3866,56
548,22	3854,28
548,43	3942,34
548,63	3766,21
548,84	3760,07
549,04	3590,09
549,25	3639,24
549,45	3676,10
549,66	3497,93
549,86	3536,84
550,07	3596,23
550,27	3477,45
550,48	3542,99
550,69	3571,66
550,89	3502,03
551,10	3370,96
551,30	3463,12
551,51	3350,48
551,71	3284,94
551,92	3303,37
552,12	3289,04
552,33	3205,07
552,53	3104,72
552,74	3153,87
552,94	3276,75
553,15	3188,69
553,35	3166,16
553,56	3018,71
553,76	3100,62
553,97	3024,85
554,17	3059,67
554,38	3090,38
554,58	3106,77
554,79	2850,77
554,99	2947,03
555,19	2977,75
555,40	3030,99
555,60	3063,76
555,81	2789,33
556,01	2883,54
556,22	2863,06
556,42	2875,35
556,63	2830,29
556,83	2889,68
557,04	2811,86
557,24	2922,45
557,45	2809,81
557,65	2731,99
557,86	2787,29
558,06	2770,90
558,27	2807,77
558,47	2641,88
558,67	2809,81
558,88	2633,69
559,08	2744,28
559,29	2639,83
559,49	2693,08
559,70	2693,08
559,90	2670,55
560,11	2514,91
560,31	2641,88
560,52	2703,32
560,72	2510,81
560,92	2615,26
561,13	2570,20
561,33	2543,58
561,54	2562,01
561,74	2602,97
561,95	2439,13
562,15	2557,91
562,35	2416,60
562,56	2582,49
562,76	2402,27
562,97	2441,18
563,17	2457,56
563,38	2371,55
563,58	2365,40
563,78	2387,93
563,99	2332,64
564,19	2334,68
564,40	2383,84
564,60	2312,16
564,80	2238,43
565,01	2287,58
565,21	2334,68
565,42	2365,40
565,62	2158,56
565,83	2379,74
566,03	2267,10
566,23	2269,15
566,44	2248,67
566,64	2205,66
566,85	2207,71
567,05	2209,76
567,25	2172,89
567,46	2256,86
567,66	2226,14
567,86	2234,33
568,07	2062,30
568,27	2133,98
568,48	2009,06
568,68	2121,70
568,88	2111,46
569,09	2107,36
569,29	2129,89
569,50	2111,46
569,70	2131,94
569,90	2213,85
570,11	2119,65
570,31	2000,87
570,51	2064,35
570,72	1996,77
570,92	2129,89
571,13	2140,13
571,33	1996,77
571,53	2101,22
571,74	2093,02
571,94	2140,13
572,14	2041,82
572,35	1880,04
572,55	1982,43
572,75	2015,20
572,96	2031,58
573,16	2058,21
573,36	1984,48
573,57	1988,58
573,77	1976,29
573,97	2021,35
574,18	1904,61
574,38	2009,06
574,59	2088,93
574,79	2013,15
574,99	1882,08
575,20	1945,57
575,40	1861,60
575,60	1968,10
575,81	1931,23
576,01	1886,18
576,21	1955,81
576,42	1884,13
576,62	1834,98
576,82	1849,32
577,02	1837,03
577,23	1873,89
577,43	1904,61
577,63	1908,71
577,84	1781,73
578,04	1855,46
578,24	1753,06
578,45	1875,94
578,65	1701,86
578,85	1798,12
579,06	1918,95
579,26	1861,60
579,46	1896,42
579,67	1880,04
579,87	1910,75
580,07	1927,14
580,27	1716,20
580,48	1845,22
580,68	1853,41
580,88	1867,75
581,09	1851,36
581,29	1791,97
581,49	1871,84
581,69	1808,36
581,90	1761,25
582,10	1712,10
582,30	1798,12
582,51	1882,08
582,71	1755,11
582,91	1789,92
583,11	1769,44
583,32	1759,21
583,52	1742,82
583,72	1720,29
583,93	1857,51
584,13	1808,36
584,33	1787,88
584,53	1789,92
584,74	1718,25
584,94	1638,38
585,14	1748,97
585,34	1783,78
585,55	1746,92
585,75	1722,34
585,95	1771,49
586,15	1718,25
586,36	1814,50
586,56	1769,44
586,76	1826,79
586,96	1611,75
587,17	1658,85
587,37	1656,81
587,57	1675,24
587,77	1626,09
587,98	1787,88
588,18	1646,57
588,38	1652,71
588,58	1710,05
588,79	1724,39
588,99	1597,42
589,19	1746,92
589,39	1705,96
589,60	1658,85
589,80	1787,88
590,00	1675,24
590,20	1658,85
590,40	1660,90
590,61	1621,99
590,81	1693,67
591,01	1667,05
591,21	1675,24
591,42	1660,90
591,62	1560,55
591,82	1644,52
592,02	1703,91
592,22	1718,25
592,43	1636,33
592,63	1775,59
592,83	1730,53
593,03	1654,76
593,23	1703,91
593,44	1650,66
593,64	1576,94
593,84	1693,67
594,04	1705,96
594,24	1636,33
594,45	1691,62
594,65	1613,80
594,85	1687,53
595,05	1701,86
595,25	1642,47
595,46	1613,80
595,66	1640,42
595,86	1609,70
596,06	1607,66
596,26	1511,40
596,46	1613,80
596,67	1597,42
596,87	1595,37
597,07	1650,66
597,27	1562,60
597,47	1605,61
597,67	1701,86
597,88	1581,03
598,08	1667,05
598,28	1687,53
598,48	1591,27
598,68	1589,22
598,88	1669,09
599,09	1703,91
599,29	1533,93
599,49	1636,33
599,69	1640,42
599,89	1632,23
600,09	1640,42
600,30	1636,33
600,50	1636,33
600,70	1621,99
600,90	1671,14
601,10	1658,85
601,30	1654,76
601,50	1626,09
601,71	1787,88
601,91	1646,57
602,11	1521,64
602,31	1654,76
602,51	1601,51
602,71	1542,12
602,91	1589,22
603,11	1574,89
603,32	1644,52
603,52	1511,40
603,72	1560,55
603,92	1589,22
604,12	1531,88
604,32	1531,88
604,52	1611,75
604,72	1529,83
604,93	1613,80
605,13	1673,19
605,33	1662,95
605,53	1540,07
605,73	1507,30
605,93	1603,56
606,13	1568,74
606,33	1615,85
606,53	1566,70
606,74	1603,56
606,94	1611,75
607,14	1652,71
607,34	1542,12
607,54	1472,49
607,74	1630,18
607,94	1476,59
608,14	1669,09
608,34	1562,60
608,54	1552,36
608,74	1595,37
608,95	1540,07
609,15	1605,61
609,35	1552,36
609,55	1574,89
609,75	1601,51
609,95	1712,10
610,15	1587,18
610,35	1587,18
610,55	1572,84
610,75	1531,88
610,95	1523,69
611,15	1531,88
611,35	1617,90
611,55	1669,09
611,76	1619,94
611,96	1544,17
612,16	1595,37
612,36	1607,66
612,56	1607,66
612,76	1609,70
612,96	1583,08
613,16	1689,57
613,36	1595,37
613,56	1609,70
613,76	1499,11
613,96	1613,80
614,16	1550,31
614,36	1503,21
614,56	1562,60
614,76	1589,22
614,96	1656,81
615,16	1517,54
615,36	1452,01
615,56	1548,26
615,76	1640,42
615,97	1521,64
616,17	1593,32
616,37	1624,04
616,57	1609,70
616,77	1574,89
616,97	1570,79
617,17	1554,41
617,37	1613,80
617,57	1574,89
617,77	1646,57
617,97	1675,24
618,17	1521,64
618,37	1638,38
618,57	1535,98
618,77	1654,76
618,97	1558,50
619,17	1619,94
619,37	1603,56
619,57	1542,12
619,77	1601,51
619,97	1548,26
620,17	1560,55
620,37	1583,08
620,57	1540,07
620,77	1583,08
620,97	1597,42
621,17	1540,07
621,37	1501,16
621,57	1587,18
621,77	1550,31
621,97	1615,85
622,17	1515,50
622,37	1603,56
622,57	1621,99
622,77	1566,70
622,97	1540,07
623,17	1550,31
623,37	1587,18
623,57	1589,22
623,77	1517,54
623,97	1507,30
624,16	1505,26
624,36	1615,85
624,56	1492,97
624,76	1562,60
624,96	1472,49
625,16	1609,70
625,36	1523,69
625,56	1654,76
625,76	1556,46
625,96	1480,68
626,16	1634,28
626,36	1501,16
626,56	1665,00
626,76	1609,70
626,96	1507,30
627,16	1587,18
627,36	1482,73
627,56	1630,18
627,76	1511,40
627,96	1517,54
628,16	1583,08
628,35	1613,80
628,55	1492,97
628,75	1615,85
628,95	1503,21
629,15	1603,56
629,35	1482,73
629,55	1499,11
629,75	1570,79
629,95	1509,35
630,15	1597,42
630,35	1511,40
630,55	1619,94
630,75	1515,50
630,95	1683,43
631,14	1593,32
631,34	1585,13
631,54	1572,84
631,74	1480,68
631,94	1570,79
632,14	1523,69
632,34	1581,03
632,54	1509,35
632,74	1523,69
632,94	1523,69
633,14	1638,38
633,33	1576,94
633,53	1509,35
633,73	1654,76
633,93	1591,27
634,13	1605,61
634,33	1662,95
634,53	1482,73
634,73	1650,66
634,93	1454,06
635,12	1601,51
635,32	1601,51
635,52	1458,15
635,72	1468,39
635,92	1519,59
636,12	1683,43
636,32	1525,74
636,52	1552,36
636,71	1589,22
636,91	1624,04
637,11	1564,65
637,31	1535,98
637,51	1548,26
637,71	1650,66
637,91	1470,44
638,11	1562,60
638,30	1519,59
638,50	1497,07
638,70	1695,72
638,90	1572,84
639,10	1501,16
639,30	1513,45
639,50	1484,78
639,69	1546,22
639,89	1474,54
640,09	1552,36
640,29	1572,84
640,49	1544,17
640,69	1470,44
640,88	1576,94
641,08	1484,78
641,28	1587,18
641,48	1644,52
641,68	1531,88
641,88	1533,93
642,07	1499,11
642,27	1601,51
642,47	1519,59
642,67	1560,55
642,87	1593,32
643,07	1583,08
643,26	1583,08
643,46	1607,66
643,66	1429,48
643,86	1540,07
644,06	1492,97
644,26	1566,70
644,45	1597,42
644,65	1527,78
644,85	1593,32
645,05	1619,94
645,25	1591,27
645,44	1542,12
645,64	1576,94
645,84	1550,31
646,04	1449,96
646,24	1523,69
646,43	1667,05
646,63	1578,98
646,83	1533,93
647,03	1535,98
647,23	1406,95
647,42	1527,78
647,62	1615,85
647,82	1466,35
648,02	1452,01
648,22	1578,98
648,41	1585,13
648,61	1560,55
648,81	1585,13
649,01	1501,16
649,20	1662,95
649,40	1497,07
649,60	1640,42
649,80	1527,78
650,00	1572,84
650,19	1515,50
650,39	1595,37
650,59	1634,28
650,79	1552,36
650,98	1492,97
651,18	1562,60
651,38	1517,54
651,58	1578,98
651,77	1533,93
651,97	1621,99
652,17	1538,02
652,37	1601,51
652,56	1458,15
652,76	1554,41
652,96	1574,89
653,16	1525,74
653,35	1488,87
653,55	1433,58
653,75	1507,30
653,95	1642,47
654,14	1583,08
654,34	1509,35
654,54	1505,26
654,74	1540,07
654,93	1531,88
655,13	1495,02
655,33	1497,07
655,52	1535,98
655,72	1552,36
655,92	1566,70
656,12	1482,73
656,31	1581,03
656,51	1544,17
656,71	1503,21
656,91	1476,59
657,10	1474,54
657,30	1509,35
657,50	1521,64
657,69	1566,70
657,89	1568,74
658,09	1601,51
658,29	1603,56
658,48	1529,83
658,68	1525,74
658,88	1533,93
659,07	1605,61
659,27	1642,47
659,47	1480,68
659,66	1652,71
659,86	1495,02
660,06	1564,65
660,26	1523,69
660,45	1615,85
660,65	1689,57
660,85	1533,93
661,04	1507,30
661,24	1605,61
661,44	1486,83
661,63	1570,79
661,83	1574,89
662,03	1484,78
662,22	1540,07
662,42	1511,40
662,62	1527,78
662,81	1542,12
663,01	1531,88
663,21	1542,12
663,40	1558,50
663,60	1574,89
663,80	1544,17
663,99	1624,04
664,19	1484,78
664,39	1583,08
664,58	1566,70
664,78	1560,55
664,98	1449,96
665,17	1548,26
665,37	1507,30
665,57	1665,00
665,76	1585,13
665,96	1429,48
666,16	1568,74
666,35	1556,46
666,55	1511,40
666,74	1599,46
666,94	1681,38
667,14	1490,92
667,33	1595,37
667,53	1597,42
667,73	1560,55
667,92	1615,85
668,12	1550,31
668,32	1605,61
668,51	1544,17
668,71	1505,26
668,90	1466,35
669,10	1533,93
669,30	1505,26
669,49	1513,45
669,69	1574,89
669,89	1499,11
670,08	1505,26
670,28	1841,12
670,47	1544,17
670,67	1599,46
670,87	1568,74
671,06	1679,33
671,26	1583,08
671,45	1505,26
671,65	1583,08
671,85	1535,98
672,04	1538,02
672,24	1542,12
672,43	1562,60
672,63	1587,18
672,83	1488,87
673,02	1517,54
673,22	1486,83
673,41	1564,65
673,61	1415,15
673,81	1550,31
674,00	1605,61
674,20	1538,02
674,39	1478,63
674,59	1474,54
674,78	1439,72
674,98	1640,42
675,18	1556,46
675,37	1507,30
675,57	1574,89
675,76	1603,56
675,96	1568,74
676,15	1535,98
676,35	1562,60
676,55	1576,94
676,74	1562,60
676,94	1445,87
677,13	1540,07
677,33	1597,42
677,52	1566,70
677,72	1578,98
677,91	1447,91
678,11	1488,87
678,31	1515,50
678,50	1538,02
678,70	1478,63
678,89	1542,12
679,09	1568,74
679,28	1521,64
679,48	1624,04
679,67	1566,70
679,87	1607,66
680,06	1734,63
680,26	1533,93
680,46	1486,83
680,65	1556,46
680,85	1531,88
681,04	1482,73
681,24	1441,77
681,43	1480,68
681,63	1531,88
681,82	1646,57
682,02	1499,11
682,21	1499,11
682,41	1533,93
682,60	1525,74
682,80	1576,94
682,99	1638,38
683,19	1499,11
683,38	1533,93
683,58	1540,07
683,77	1507,30
683,97	1581,03
684,16	1640,42
684,36	1570,79
684,55	1488,87
684,75	1462,25
684,94	1548,26
685,14	1572,84
685,33	1531,88
685,53	1585,13
685,72	1593,32
685,92	1552,36
686,11	1443,82
686,31	1638,38
686,50	1613,80
686,70	1581,03
686,89	1472,49
687,09	1624,04
687,28	1646,57
687,48	1523,69
687,67	1466,35
687,87	1519,59
688,06	1511,40
688,26	1611,75
688,45	1566,70
688,65	1562,60
688,84	1601,51
689,03	1492,97
689,23	1554,41
689,42	1611,75
689,62	1566,70
689,81	1521,64
690,01	1538,02
690,20	1609,70
690,40	1564,65
690,59	1658,85
690,79	1542,12
690,98	1609,70
691,17	1576,94
691,37	1570,79
691,56	1566,70
691,76	1624,04
691,95	1617,90
692,15	1503,21
692,34	1576,94
692,54	1515,50
692,73	1576,94
692,92	1619,94
693,12	1503,21
693,31	1542,12
693,51	1593,32
693,70	1509,35
693,90	1519,59
694,09	1517,54
694,28	1581,03
694,48	1538,02
694,67	1599,46
694,87	1529,83
695,06	1495,02
695,26	1535,98
695,45	1548,26
695,64	1566,70
695,84	1550,31
696,03	1490,92
696,23	1525,74
696,42	1501,16
696,61	1560,55
696,81	1515,50
697,00	1452,01
697,20	1556,46
697,39	1611,75
697,58	1474,54
697,78	1617,90
697,97	1632,23
698,17	1511,40
698,36	1540,07
698,55	1507,30
698,75	1583,08
698,94	1538,02
699,14	1495,02
699,33	1437,67
699,52	1576,94
699,72	1544,17
699,91	1576,94
700,10	1566,70
700,30	1495,02
700,49	1484,78
700,69	1560,55
700,88	1558,50
701,07	1546,22
701,27	1533,93
701,46	1722,34
701,65	1552,36
701,85	1517,54
702,04	1581,03
702,23	1435,63
702,43	1478,63
702,62	1550,31
702,82	1472,49
703,01	1712,10
703,20	1556,46
703,40	1578,98
703,59	1552,36
703,78	1546,22
703,98	1558,50
704,17	1531,88
704,36	1519,59
704,56	1708,01
704,75	1517,54
704,94	1556,46
705,14	1544,17
705,33	1550,31
705,52	1529,83
705,72	1525,74
705,91	1578,98
706,10	1560,55
706,30	1511,40
706,49	1591,27
706,68	1540,07
706,88	1540,07
707,07	1570,79
707,26	1521,64
707,46	1617,90
707,65	1644,52
707,84	1583,08
708,04	1443,82
708,23	1552,36
708,42	1478,63
708,62	1454,06
708,81	1497,07
709,00	1646,57
709,19	1495,02
709,39	1501,16
709,58	1531,88
709,77	1439,72
709,97	1544,17
710,16	1497,07
710,35	1562,60
710,55	1638,38
710,74	1558,50
710,93	1509,35
711,12	1568,74
711,32	1521,64
711,51	1689,57
711,70	1423,34
711,90	1501,16
712,09	1525,74
712,28	1619,94
712,47	1564,65
712,67	1484,78
712,86	1574,89
713,05	1523,69
713,24	1591,27
713,44	1507,30
713,63	1554,41
713,82	1480,68
714,02	1570,79
714,21	1585,13
714,40	1535,98
714,59	1517,54
714,79	1552,36
714,98	1499,11
715,17	1773,54
715,36	1531,88
715,56	1613,80
715,75	1554,41
715,94	1548,26
716,13	1583,08
716,33	1542,12
716,52	1605,61
716,71	1558,50
716,90	1603,56
717,10	1562,60
717,29	1542,12
717,48	1656,81
717,67	1499,11
717,87	1611,75
718,06	1548,26
718,25	1515,50
718,44	1558,50
718,63	1492,97
718,83	1515,50
719,02	1509,35
719,21	1585,13
719,40	1462,25
719,60	1521,64
719,79	1513,45
719,98	1527,78
720,17	1480,68
720,36	1542,12
720,56	1488,87
720,75	1513,45
720,94	1501,16
721,13	1550,31
721,33	1548,26
721,52	1501,16
721,71	1601,51
721,90	1568,74
722,09	1589,22
722,29	1560,55
722,48	1474,54
722,67	1535,98
722,86	1595,37
723,05	1538,02
723,24	1593,32
723,44	1529,83
723,63	1515,50
723,82	1540,07
724,01	1509,35
724,20	1619,94
724,40	1462,25
724,59	1511,40
724,78	1468,39
724,97	1556,46
725,16	1652,71
725,35	1574,89
725,55	1552,36
725,74	1634,28
725,93	1607,66
726,12	1546,22
726,31	1628,14
726,51	1570,79
726,70	1533,93
726,89	1634,28
727,08	1519,59
727,27	1548,26
727,46	1591,27
727,65	1517,54
727,85	1574,89
728,04	1513,45
728,23	1456,11
728,42	1535,98
728,61	1535,98
728,80	1525,74
729,00	1587,18
729,19	1533,93
729,38	1601,51
729,57	1562,60
729,76	1519,59
729,95	1662,95
730,14	1587,18
730,33	1576,94
730,53	1531,88
730,72	1492,97
730,91	1492,97
731,10	1568,74
731,29	1705,96
731,48	1605,61
731,67	1454,06
731,86	1566,70
732,06	1574,89
732,25	1515,50
732,44	1552,36
732,63	1556,46
732,82	1597,42
733,01	1578,98
733,20	1570,79
733,39	1572,84
733,59	1566,70
733,78	1515,50
733,97	1591,27
734,16	1619,94
734,35	1576,94
734,54	1591,27
734,73	1619,94
734,92	1484,78
735,11	1492,97
735,30	1519,59
735,49	1585,13
735,69	1621,99
735,88	1624,04
736,07	1638,38
736,26	1505,26
736,45	1517,54
736,64	1458,15
736,83	1558,50
737,02	1546,22
737,21	1480,68
737,40	1511,40
737,59	1699,81
737,78	1482,73
737,98	1542,12
738,17	1511,40
738,36	1697,77
738,55	1437,67
738,74	1603,56
738,93	1517,54
739,12	1433,58
739,31	1497,07
739,50	1540,07
739,69	1658,85
739,88	1445,87
740,07	1591,27
740,26	1603,56
740,45	1583,08
740,64	1542,12
740,83	1480,68
741,02	1478,63
741,22	1519,59
741,41	1578,98
741,60	1601,51
741,79	1593,32
741,98	1599,46
742,17	1583,08
742,36	1531,88
742,55	1478,63
742,74	1630,18
742,93	1593,32
743,12	1570,79
743,31	1591,27
743,50	1574,89
743,69	1587,18
743,88	1587,18
744,07	1550,31
744,26	1701,86
744,45	1558,50
744,64	1638,38
744,83	1525,74
745,02	1474,54
745,21	1589,22
745,40	1554,41
745,59	1581,03
745,78	1544,17
745,97	1527,78
746,16	1621,99
746,35	1603,56
746,54	1462,25
746,73	1458,15
746,92	1560,55
747,11	1562,60
747,30	1466,35
747,49	1538,02
747,68	1499,11
747,87	1544,17
748,06	1550,31
748,25	1607,66
748,44	1599,46
748,63	1581,03
748,82	1511,40
749,01	1531,88
749,20	1501,16
749,39	1538,02
749,58	1605,61
749,77	1482,73
749,96	1488,87
750,15	1578,98
750,34	1507,30
750,53	1556,46
750,72	1562,60
750,91	1488,87
751,10	1583,08
751,29	1462,25
751,48	1464,30
751,67	1484,78
751,86	1542,12
752,04	1648,61
752,23	1605,61
752,42	1574,89
752,61	1499,11
752,80	1566,70
752,99	1533,93
753,18	1523,69
753,37	1531,88
753,56	1509,35
753,75	1570,79
753,94	1488,87
754,13	1599,46
754,32	1499,11
754,51	1540,07
754,70	1540,07
754,89	1552,36
755,08	1531,88
755,27	1495,02
755,45	1560,55
755,64	1531,88
755,83	1495,02
756,02	1642,47
756,21	1533,93
756,40	1581,03
756,59	1513,45
756,78	1511,40
756,97	1568,74
757,16	1505,26
757,35	1560,55
757,54	1570,79
757,72	1656,81
757,91	1443,82
758,10	1497,07
758,29	1464,30
758,48	1570,79
758,67	1466,35
758,86	1591,27
759,05	1548,26
759,24	1527,78
759,43	1605,61
759,61	1474,54
759,80	1523,69
759,99	1554,41
760,18	1507,30
760,37	1538,02
760,56	1474,54
760,75	1523,69
760,94	1503,21
761,13	1556,46
761,31	1613,80
761,50	1527,78
761,69	1540,07
761,88	1474,54
762,07	1415,15
762,26	1558,50
762,45	1484,78
762,64	1513,45
762,82	1470,44
763,01	1613,80
763,20	1511,40
763,39	1570,79
763,58	1511,40
763,77	1443,82
763,96	1490,92
764,14	1456,11
764,33	1474,54
764,52	1488,87
764,71	1585,13
764,90	1548,26
765,09	1445,87
765,27	1566,70
765,46	1535,98
765,65	1507,30
765,84	1472,49
766,03	1546,22
766,22	1482,73
766,41	1556,46
766,59	1499,11
766,78	1546,22
766,97	1484,78
767,16	1566,70
767,35	1433,58
767,54	1648,61
767,72	1574,89
767,91	1509,35
768,10	1521,64
768,29	1495,02
768,48	1587,18
768,66	1533,93
768,85	1554,41
769,04	1509,35
769,23	1470,44
769,42	1574,89
769,61	1531,88
769,79	1548,26
769,98	1546,22
770,17	1392,62
770,36	1583,08
770,55	1507,30
770,73	1564,65
770,92	1578,98
771,11	1613,80
771,30	1482,73
771,49	1595,37
771,67	1634,28
771,86	1519,59
772,05	1564,65
772,24	1546,22
772,42	1474,54
772,61	1585,13
772,80	1562,60
772,99	1482,73
773,18	1591,27
773,36	1484,78
773,55	1492,97
773,74	1478,63
773,93	1626,09
774,11	1480,68
774,30	1628,14
774,49	1560,55
774,68	1556,46
774,87	1552,36
775,05	1486,83
775,24	1458,15
775,43	1617,90
775,62	1550,31
775,80	1560,55
775,99	1607,66
776,18	1693,67
776,37	1531,88
776,55	1619,94
776,74	1507,30
776,93	1515,50
777,12	1617,90
777,30	1609,70
777,49	1515,50
777,68	1564,65
777,87	1490,92
778,05	1503,21
778,24	1546,22
778,43	1574,89
778,62	1542,12
778,80	1564,65
778,99	1617,90
779,18	1552,36
779,36	1578,98
779,55	1437,67
779,74	1562,60
779,93	1581,03
780,11	1595,37
780,30	1556,46
780,49	1550,31
780,68	1578,98
780,86	1595,37
781,05	1593,32
781,24	1521,64
781,42	1554,41
781,61	1585,13
781,80	1452,01
781,98	1540,07
782,17	1558,50
782,36	1538,02
782,55	1542,12
782,73	1540,07
782,92	1701,86
783,11	1474,54
783,29	1507,30
783,48	1558,50
783,67	1542,12
783,85	1515,50
784,04	1597,42
784,23	1558,50
784,42	1581,03
784,60	1515,50
784,79	1630,18
784,98	1613,80
785,16	1523,69
785,35	1529,83
785,54	1550,31
785,72	1611,75
785,91	1576,94
786,10	1591,27
786,28	1650,66
786,47	1587,18
786,66	1495,02
786,84	1636,33
787,03	1540,07
787,22	1542,12
787,40	1505,26
787,59	1624,04
787,78	1574,89
787,96	1437,67
788,15	1566,70
788,34	1458,15
788,52	1624,04
788,71	1585,13
788,89	1531,88
789,08	1535,98
789,27	1611,75
789,45	1613,80
789,64	1517,54
789,83	1492,97
790,01	1554,41
790,20	1613,80
790,39	1552,36
790,57	1527,78
790,76	1486,83
790,95	1519,59
791,13	1572,84
791,32	1576,94
791,50	1703,91
791,69	1468,39
791,88	1626,09
792,06	1656,81
792,25	1583,08
792,43	1458,15
792,62	1628,14
792,81	1515,50
792,99	1478,63
793,18	1515,50
793,37	1609,70
793,55	1529,83
793,74	1570,79
793,92	1595,37
794,11	1519,59
794,30	1546,22
794,48	1523,69
794,67	1519,59
794,85	1523,69
795,04	1531,88
795,23	1550,31
795,41	1531,88
795,60	1550,31
795,78	1503,21
795,97	1609,70
796,15	1581,03
796,34	1550,31
796,53	1531,88
796,71	1566,70
796,90	1544,17
797,08	1400,81
797,27	1654,76
797,46	1552,36
797,64	1488,87
797,83	1603,56
798,01	1480,68
798,20	1566,70
798,38	1484,78
798,57	1472,49
798,76	1505,26
798,94	1507,30
799,13	1533,93
799,31	1546,22
799,50	1511,40
799,68	1474,54
799,87	1437,67
800,05	1527,78
800,24	1419,24
800,43	1454,06
800,61	1595,37
800,80	1566,70
800,98	1486,83
801,17	1513,45
801,35	1519,59
801,54	1544,17
801,72	1519,59
801,91	1533,93
802,09	1505,26
802,28	1521,64
802,46	1578,98
802,65	1519,59
802,84	1638,38
803,02	1583,08
803,21	1570,79
803,39	1476,59
803,58	1540,07
803,76	1544,17
803,95	1542,12
804,13	1466,35
804,32	1583,08
804,50	1595,37
804,69	1589,22
804,87	1550,31
805,06	1568,74
805,24	1619,94
805,43	1505,26
805,61	1523,69
805,80	1578,98
805,98	1445,87
806,17	1544,17
806,35	1452,01
806,54	1560,55
806,72	1517,54
806,91	1535,98
807,09	1568,74
807,28	1593,32
807,46	1583,08
807,65	1542,12
807,83	1466,35
808,02	1517,54
808,20	1589,22
808,39	1550,31
808,57	1488,87
808,76	1609,70
808,94	1583,08
809,13	1511,40
809,31	1503,21
809,49	1634,28
809,68	1452,01
809,86	1529,83
810,05	1542,12
810,23	1613,80
810,42	1535,98
810,60	1415,15
810,79	1476,59
810,97	1482,73
811,16	1533,93
811,34	1535,98
811,53	1521,64
811,71	1458,15
811,89	1542,12
812,08	1546,22
812,26	1490,92
812,45	1548,26
812,63	1544,17
812,82	1540,07
813,00	1415,15
813,19	1529,83
813,37	1521,64
813,55	1415,15
813,74	1464,30
813,92	1644,52
814,11	1556,46
814,29	1441,77
814,48	1581,03
814,66	1578,98
814,84	1546,22
815,03	1497,07
815,21	1548,26
815,40	1585,13
815,58	1540,07
815,77	1558,50
815,95	1519,59
816,13	1519,59
816,32	1644,52
816,50	1581,03
816,69	1568,74
816,87	1454,06
817,05	1540,07
817,24	1581,03
817,42	1613,80
817,61	1511,40
817,79	1495,02
817,97	1515,50
818,16	1490,92
818,34	1652,71
818,53	1578,98
818,71	1578,98
818,89	1538,02
819,08	1515,50
819,26	1523,69
819,45	1515,50
819,63	1509,35
819,81	1595,37
820,00	1662,95
820,18	1474,54
820,36	1540,07
820,55	1515,50
820,73	1499,11
820,92	1556,46
821,10	1495,02
821,28	1519,59
821,47	1581,03
821,65	1501,16
821,83	1677,29
822,02	1464,30
822,20	1550,31
822,39	1474,54
822,57	1550,31
822,75	1529,83
822,94	1486,83
823,12	1478,63
823,30	1456,11
823,49	1638,38
823,67	1556,46
823,85	1503,21
824,04	1484,78
824,22	1505,26
824,40	1660,90
824,59	1472,49
824,77	1568,74
824,95	1540,07
825,14	1558,50
825,32	1566,70
825,50	1533,93
825,69	1472,49
825,87	1568,74
826,05	1501,16
826,24	1540,07
826,42	1654,76
826,60	1562,60
826,79	1503,21
826,97	1445,87
827,15	1464,30
827,34	1527,78
827,52	1472,49
827,70	1523,69
827,89	1454,06
828,07	1462,25
828,25	1464,30
828,44	1574,89
828,62	1531,88
828,80	1601,51
828,98	1523,69
829,17	1497,07
829,35	1552,36
829,53	1531,88
829,72	1527,78
829,90	1501,16
830,08	1478,63
830,27	1583,08
830,45	1656,81
830,63	1617,90
830,81	1476,59
831,00	1529,83
831,18	1511,40
831,36	1560,55
831,55	1476,59
831,73	1507,30
831,91	1464,30
832,09	1550,31
832,28	1585,13
832,46	1531,88
832,64	1585,13
832,82	1462,25
833,01	1523,69
833,19	1576,94
833,37	1488,87
833,55	1466,35
833,74	1581,03
833,92	1513,45
834,10	1488,87
834,29	1554,41
834,47	1492,97
834,65	1617,90
834,83	1517,54
835,02	1415,15
835,20	1478,63
835,38	1544,17
835,56	1574,89
835,75	1525,74
835,93	1595,37
836,11	1583,08
836,29	1490,92
836,47	1578,98
836,66	1542,12
836,84	1593,32
837,02	1540,07
837,20	1554,41
837,39	1583,08
837,57	1595,37
837,75	1546,22
837,93	1523,69
838,12	1449,96
838,30	1456,11
838,48	1499,11
838,66	1593,32
838,84	1503,21
839,03	1621,99
839,21	1507,30
839,39	1540,07
839,57	1560,55
839,75	1630,18
839,94	1568,74
840,12	1456,11
840,30	1490,92
840,48	1630,18
840,66	1484,78
840,85	1441,77
841,03	1527,78
841,21	1578,98
841,39	1626,09
841,57	1488,87
841,76	1517,54
841,94	1689,57
842,12	1548,26
842,30	1513,45
842,48	1558,50
842,67	1583,08
842,85	1589,22
843,03	1517,54
843,21	1572,84
843,39	1593,32
843,57	1466,35
843,76	1507,30
843,94	1540,07
844,12	1560,55
844,30	1415,15
844,48	1585,13
844,66	1605,61
844,85	1589,22
845,03	1572,84
845,21	1515,50
845,39	1595,37
845,57	1558,50
845,75	1581,03
845,94	1578,98
846,12	1587,18
846,30	1488,87
846,48	1497,07
846,66	1589,22
846,84	1503,21
847,02	1583,08
847,21	1525,74
847,39	1540,07
847,57	1574,89
847,75	1509,35
847,93	1464,30
848,11	1452,01
848,29	1548,26
848,48	1488,87
848,66	1531,88
848,84	1621,99
849,02	1437,67
849,20	1503,21
849,38	1601,51
849,56	1460,20
849,74	1529,83
849,93	1599,46
850,11	1452,01
850,29	1517,54
850,47	1562,60
850,65	1499,11
850,83	1474,54
851,01	1564,65
851,19	1574,89
851,37	1517,54
851,56	1468,39
851,74	1490,92
851,92	1495,02
852,10	1468,39
852,28	1560,55
852,46	1499,11
852,64	1626,09
852,82	1585,13
853,00	1486,83
853,18	1495,02
853,37	1556,46
853,55	1558,50
853,73	1548,26
853,91	1509,35
854,09	1538,02
854,27	1540,07
854,45	1595,37
854,63	1593,32
854,81	1484,78
854,99	1554,41
855,17	1519,59
855,35	1466,35
855,53	1521,64
855,72	1497,07
855,90	1546,22
856,08	1601,51
856,26	1468,39
856,44	1576,94
856,62	1456,11
856,80	1501,16
856,98	1546,22
857,16	1486,83
857,34	1617,90
857,52	1603,56
857,70	1550,31
857,88	1462,25
858,06	1474,54
858,24	1533,93
858,42	1662,95
858,60	1533,93
858,78	1396,71
858,96	1519,59
859,15	1540,07
859,33	1470,44
859,51	1568,74
859,69	1570,79
859,87	1617,90
860,05	1578,98
860,23	1525,74
860,41	1482,73
860,59	1540,07
860,77	1593,32
860,95	1535,98
861,13	1515,50
861,31	1564,65
861,49	1474,54
861,67	1478,63
861,85	1527,78
862,03	1646,57
862,21	1566,70
862,39	1505,26
862,57	1617,90
862,75	1421,29
862,93	1601,51
863,11	1546,22
863,29	1495,02
863,47	1566,70
863,65	1609,70
863,83	1531,88
864,01	1513,45
864,19	1533,93
864,37	1533,93
864,55	1499,11
864,73	1552,36
864,91	1568,74
865,09	1570,79
865,27	1540,07
865,45	1456,11
865,63	1609,70
865,81	1490,92
865,99	1480,68
866,17	1572,84
866,35	1550,31
866,53	1556,46
866,71	1499,11
866,89	1587,18
867,07	1589,22
867,24	1458,15
867,42	1576,94
867,60	1617,90
867,78	1550,31
867,96	1533,93
868,14	1552,36
868,32	1599,46
868,50	1593,32
868,68	1517,54
868,86	1497,07
869,04	1568,74
869,22	1525,74
869,40	1492,97
869,58	1542,12
869,76	1513,45
869,94	1515,50
870,12	1433,58
870,30	1589,22
870,48	1505,26
870,66	1501,16
870,83	1531,88
871,01	1568,74
871,19	1515,50
871,37	1529,83
871,55	1443,82
871,73	1507,30
871,91	1558,50
872,09	1589,22
872,27	1564,65
872,45	1550,31
872,63	1478,63
872,81	1497,07
872,98	1544,17
873,16	1529,83
873,34	1568,74
873,52	1525,74
873,70	1521,64
873,88	1587,18
874,06	1441,77
874,24	1546,22
874,42	1478,63
874,60	1554,41
874,78	1542,12
874,95	1468,39
875,13	1544,17
875,31	1558,50
875,49	1558,50
875,67	1605,61
875,85	1499,11
876,03	1511,40
876,21	1566,70
876,39	1550,31
876,56	1552,36
876,74	1482,73
876,92	1529,83
877,10	1572,84
877,28	1583,08
877,46	1462,25
877,64	1597,42
877,82	1568,74
877,99	1480,68
878,17	1490,92
878,35	1583,08
878,53	1544,17
878,71	1636,33
878,89	1488,87
879,07	1509,35
879,24	1527,78
879,42	1548,26
879,60	1525,74
879,78	1595,37
879,96	1472,49
880,14	1550,31
880,32	1499,11
880,49	1484,78
880,67	1597,42
880,85	1562,60
881,03	1445,87
881,21	1509,35
881,39	1519,59
881,56	1439,72
881,74	1501,16
881,92	1484,78
882,10	1529,83
882,28	1566,70
882,46	1556,46
882,63	1529,83
882,81	1409,00
882,99	1513,45
883,17	1533,93
883,35	1585,13
883,52	1578,98
883,70	1566,70
883,88	1523,69
884,06	1568,74
884,24	1587,18
884,42	1640,42
884,59	1515,50
884,77	1540,07
884,95	1564,65
885,13	1525,74
885,31	1589,22
885,48	1550,31
885,66	1611,75
885,84	1597,42
886,02	1562,60
886,20	1650,66
886,37	1505,26
886,55	1593,32
886,73	1576,94
886,91	1583,08
887,08	1568,74
887,26	1626,09
887,44	1566,70
887,62	1488,87
887,80	1585,13
887,97	1556,46
888,15	1578,98
888,33	1540,07
888,51	1495,02
888,68	1554,41
888,86	1480,68
889,04	1554,41
889,22	1595,37
889,40	1462,25
889,57	1527,78
889,75	1611,75
889,93	1462,25
890,11	1572,84
890,28	1560,55
890,46	1499,11
890,64	1597,42
890,82	1556,46
890,99	1605,61
891,17	1517,54
891,35	1466,35
891,53	1505,26
891,70	1447,91
891,88	1490,92
892,06	1529,83
892,24	1476,59
892,41	1497,07
892,59	1554,41
892,77	1478,63
892,94	1560,55
893,12	1595,37
893,30	1413,10
893,48	1525,74
893,65	1566,70
893,83	1540,07
894,01	1554,41
894,19	1552,36
894,36	1671,14
894,54	1578,98
894,72	1540,07
894,89	1513,45
895,07	1511,40
895,25	1603,56
895,43	1482,73
895,60	1630,18
895,78	1566,70
895,96	1517,54
896,13	1568,74
896,31	1613,80
896,49	1452,01
896,66	1435,63
896,84	1648,61
897,02	1591,27
897,20	1548,26
897,37	1509,35
897,55	1462,25
897,73	1699,81
897,90	1607,66
898,08	1566,70
898,26	1552,36
898,43	1507,30
898,61	1566,70
898,79	1480,68
898,96	1464,30
899,14	1452,01
899,32	1570,79
899,49	1484,78
899,67	1587,18
899,85	1630,18
900,02	1613,80
900,20	1505,26
900,38	1548,26
900,55	1648,61
900,73	1761,25
900,91	1462,25
901,08	1519,59
901,26	1458,15
901,44	1556,46
901,61	1595,37
901,79	1564,65
901,97	1587,18
902,14	1495,02
902,32	1542,12
902,50	1507,30
902,67	1560,55
902,85	1566,70
903,02	1556,46
903,20	1492,97
903,38	1464,30
903,55	1509,35
903,73	1499,11
903,91	1556,46
904,08	1648,61
904,26	1542,12
904,44	1708,01
904,61	1503,21
904,79	1564,65
904,96	1548,26
905,14	1576,94
905,32	1527,78
905,49	1552,36
905,67	1474,54
905,84	1503,21
906,02	1544,17
906,20	1507,30
906,37	1714,15
906,55	1476,59
906,73	1495,02
906,90	1503,21
907,08	1523,69
907,25	1544,17
907,43	1628,14
907,61	1492,97
907,78	1445,87
907,96	1452,01
908,13	1581,03
908,31	1624,04
908,48	1474,54
908,66	1503,21
908,84	1495,02
909,01	1613,80
909,19	1681,38
909,36	1478,63
909,54	1513,45
909,72	1470,44
909,89	1462,25
910,07	1529,83
910,24	1613,80
910,42	1527,78
910,59	1486,83
910,77	1525,74
910,95	1462,25
911,12	1597,42
911,30	1581,03
911,47	1546,22
911,65	1550,31
911,82	1482,73
912,00	1613,80
912,17	1464,30
912,35	1517,54
912,53	1644,52
912,70	1581,03
912,88	1562,60
913,05	1529,83
913,23	1484,78
913,40	1533,93
913,58	1433,58
913,75	1558,50
913,93	1429,48
914,10	1437,67
914,28	1550,31
914,46	1605,61
914,63	1535,98
914,81	1572,84
914,98	1515,50
915,16	1548,26
915,33	1519,59
915,51	1538,02
915,68	1599,46
915,86	1570,79
916,03	1449,96
916,21	1501,16
916,38	1511,40
916,56	1560,55
916,73	1583,08
916,91	1499,11
917,08	1501,16
917,26	1517,54
917,43	1501,16
917,61	1468,39
917,78	1605,61
917,96	1482,73
918,13	1503,21
918,31	1503,21
918,48	1454,06
918,66	1486,83
918,83	1656,81
919,01	1486,83
919,18	1552,36
919,36	1456,11
919,53	1550,31
919,71	1679,33
919,88	1572,84
920,06	1482,73
920,23	1511,40
920,41	1570,79
920,58	1513,45
920,76	1486,83
920,93	1548,26
921,11	1507,30
921,28	1421,29
921,45	1578,98
921,63	1509,35
921,80	1533,93
921,98	1484,78
922,15	1454,06
922,33	1492,97
922,50	1597,42
922,68	1460,20
922,85	1507,30
923,03	1474,54
923,20	1624,04
923,38	1503,21
923,55	1574,89
923,72	1492,97
923,90	1697,77
924,07	1542,12
924,25	1538,02
924,42	1656,81
924,60	1585,13
924,77	1529,83
924,95	1593,32
925,12	1609,70
925,29	1642,47
925,47	1556,46
925,64	1492,97
925,82	1519,59
925,99	1509,35
926,17	1581,03
926,34	1521,64
926,51	1533,93
926,69	1521,64
926,86	1544,17
927,04	1513,45
927,21	1499,11
927,38	1470,44
927,56	1578,98
927,73	1556,46
927,91	1572,84
928,08	1724,39
928,25	1503,21
928,43	1583,08
928,60	1472,49
928,78	1578,98
928,95	1552,36
929,12	1587,18
929,30	1568,74
929,47	1621,99
929,65	1449,96
929,82	1501,16
929,99	1591,27
930,17	1433,58
930,34	1566,70
930,52	1507,30
930,69	1523,69
930,86	1570,79
931,04	1470,44
931,21	1515,50
931,38	1546,22
931,56	1517,54
931,73	1685,48
931,91	1527,78
932,08	1540,07
932,25	1652,71
932,43	1529,83
932,60	1540,07
932,77	1574,89
932,95	1591,27
933,12	1533,93
933,29	1445,87
933,47	1585,13
933,64	1521,64
933,82	1505,26
933,99	1613,80
934,16	1474,54
934,34	1576,94
934,51	1501,16
934,68	1523,69
934,86	1570,79
935,03	1490,92
935,20	1462,25
935,38	1484,78
935,55	1499,11
935,72	1527,78
935,90	1515,50
936,07	1552,36
936,24	1460,20
936,42	1576,94
936,59	1601,51
936,76	1673,19
936,94	1404,91
937,11	1599,46
937,28	1488,87
937,46	1527,78
937,63	1482,73
937,80	1515,50
937,97	1634,28
938,15	1609,70
938,32	1484,78
938,49	1683,43
938,67	1486,83
938,84	1597,42
939,01	1578,98
939,19	1525,74
939,36	1630,18
939,53	1564,65
939,70	1484,78
939,88	1501,16
940,05	1613,80
940,22	1562,60
940,40	1589,22
940,57	1490,92
940,74	1515,50
940,92	1529,83
941,09	1509,35
941,26	1454,06
941,43	1556,46
941,61	1501,16
941,78	1464,30
941,95	1646,57
942,12	1587,18
942,30	1527,78
942,47	1572,84
942,64	1492,97
942,82	1542,12
942,99	1597,42
943,16	1437,67
943,33	1531,88
943,51	1482,73
943,68	1556,46
943,85	1533,93
944,02	1519,59
944,20	1636,33
944,37	1445,87
944,54	1560,55
944,71	1484,78
944,89	1572,84
945,06	1445,87
945,23	1525,74
945,40	1665,00
945,58	1552,36
945,75	1525,74
945,92	1675,24
946,09	1503,21
946,27	1538,02
946,44	1533,93
946,61	1572,84
946,78	1507,30
946,95	1495,02
947,13	1566,70
947,30	1523,69
947,47	1439,72
947,64	1538,02
947,82	1419,24
947,99	1542,12
948,16	1599,46
948,33	1566,70
948,50	1544,17
948,68	1556,46
948,85	1542,12
949,02	1548,26
949,19	1550,31
949,36	1558,50
949,54	1503,21
949,71	1613,80
949,88	1523,69
950,05	1478,63
950,22	1548,26
950,40	1619,94
950,57	1490,92
950,74	1624,04
950,91	1624,04
951,08	1431,53
951,26	1533,93
951,43	1556,46
951,60	1488,87
951,77	1628,14
951,94	1564,65
952,11	1550,31
952,29	1605,61
952,46	1490,92
952,63	1603,56
952,80	1570,79
952,97	1634,28
953,15	1597,42
953,32	1548,26
953,49	1452,01
953,66	1533,93
953,83	1478,63
954,00	1511,40
954,17	1497,07
954,35	1695,72
954,52	1546,22
954,69	1554,41
954,86	1615,85
955,03	1560,55
955,20	1601,51
955,38	1503,21
955,55	1503,21
955,72	1527,78
955,89	1482,73
956,06	1542,12
956,23	1490,92
956,40	1574,89
956,58	1456,11
956,75	1529,83
956,92	1468,39
957,09	1392,62
957,26	1562,60
957,43	1550,31
957,60	1525,74
957,77	1462,25
957,95	1574,89
958,12	1605,61
958,29	1591,27
958,46	1597,42
958,63	1521,64
958,80	1548,26
958,97	1619,94
959,14	1538,02
959,31	1581,03
959,49	1550,31
959,66	1495,02
959,83	1503,21
960,00	1572,84
960,17	1630,18
960,34	1576,94
960,51	1478,63
960,68	1636,33
960,85	1654,76
961,02	1531,88
961,20	1562,60
961,37	1517,54
961,54	1578,98
961,71	1585,13
961,88	1519,59
962,05	1492,97
962,22	1652,71
962,39	1581,03
962,56	1474,54
962,73	1468,39
962,90	1482,73
963,07	1538,02
963,24	1574,89
963,42	1540,07
963,59	1603,56
963,76	1572,84
963,93	1679,33
964,10	1460,20
964,27	1572,84
964,44	1562,60
964,61	1599,46
964,78	1474,54
964,95	1517,54
965,12	1478,63
965,29	1523,69
965,46	1404,91
965,63	1646,57
965,80	1478,63
965,97	1462,25
966,14	1576,94
966,31	1527,78
966,48	1628,14
966,66	1517,54
966,83	1527,78
967,00	1591,27
967,17	1552,36
967,34	1484,78
967,51	1578,98
967,68	1615,85
967,85	1511,40
968,02	1636,33
968,19	1468,39
968,36	1601,51
968,53	1482,73
968,70	1558,50
968,87	1538,02
969,04	1583,08
969,21	1486,83
969,38	1605,61
969,55	1439,72
969,72	1523,69
969,89	1603,56
970,06	1495,02
970,23	1535,98
970,40	1495,02
970,57	1525,74
970,74	1558,50
970,91	1554,41
971,08	1525,74
971,25	1542,12
971,42	1630,18
971,59	1525,74
971,76	1597,42
971,93	1566,70
972,10	1505,26
972,27	1517,54
972,44	1499,11
972,61	1513,45
972,78	1591,27
972,95	1513,45
973,12	1617,90
973,29	1492,97
973,46	1562,60
973,63	1585,13
973,80	1546,22
973,97	1523,69
974,14	1599,46
974,30	1472,49
974,47	1593,32
974,64	1595,37
974,81	1548,26
974,98	1640,42
975,15	1531,88
975,32	1560,55
975,49	1527,78
975,66	1607,66
975,83	1642,47
976,00	1572,84
976,17	1548,26
976,34	1576,94
976,51	1564,65
976,68	1531,88
976,85	1587,18
977,02	1531,88
977,19	1593,32
977,36	1562,60
977,52	1525,74
977,69	1550,31
977,86	1617,90
978,03	1449,96
978,20	1626,09
978,37	1507,30
978,54	1605,61
978,71	1564,65
978,88	1681,38
979,05	1566,70
979,22	1507,30
979,39	1540,07
979,56	1525,74
979,72	1527,78
979,89	1574,89
980,06	1652,71
980,23	1636,33
980,40	1478,63
980,57	1531,88
980,74	1525,74
980,91	1462,25
981,08	1503,21
981,25	1562,60
981,41	1546,22
981,58	1433,58
981,75	1435,63
981,92	1527,78
982,09	1509,35
982,26	1454,06
982,43	1429,48
982,60	1642,47
982,77	1486,83
982,93	1628,14
983,10	1511,40
983,27	1535,98
983,44	1521,64
983,61	1615,85
983,78	1517,54
983,95	1464,30
984,11	1452,01
984,28	1630,18
984,45	1486,83
984,62	1513,45
984,79	1492,97
984,96	1560,55
985,13	1509,35
985,30	1533,93
985,46	1515,50
985,63	1531,88
985,80	1615,85
985,97	1519,59
986,14	1480,68
986,31	1595,37
986,47	1499,11
986,64	1460,20
986,81	1501,16
986,98	1576,94
987,15	1474,54
987,32	1556,46
987,48	1544,17
987,65	1505,26
987,82	1523,69
987,99	1546,22
988,16	1798,12
988,33	1640,42
988,49	1564,65
988,66	1517,54
988,83	1515,50
989,00	1603,56
989,17	1445,87
989,34	1501,16
989,50	1542,12
989,67	1495,02
989,84	1460,20
990,01	1548,26
990,18	1497,07
990,34	1552,36
990,51	1511,40
990,68	1566,70
990,85	1628,14
991,02	1533,93
991,18	1492,97
991,35	1499,11
991,52	1576,94
991,69	1546,22
991,86	1585,13
992,02	1613,80
992,19	1429,48
992,36	1497,07
992,53	1570,79
992,69	1544,17
992,86	1523,69
993,03	1605,61
993,20	1449,96
993,37	1554,41
993,53	1621,99
993,70	1523,69
993,87	1517,54
994,04	1525,74
994,20	1456,11
994,37	1527,78
994,54	1535,98
994,71	1554,41
994,87	1558,50
995,04	1564,65
995,21	1544,17
995,38	1578,98
995,55	1531,88
995,71	1538,02
995,88	1540,07
996,05	1599,46
996,22	1599,46
996,38	1566,70
996,55	1517,54
996,72	1497,07
996,88	1681,38
997,05	2557,91
997,22	1490,92
997,39	1499,11
997,55	1570,79
997,72	1591,27
997,89	1474,54
998,06	1431,53
998,22	1587,18
998,39	1513,45
998,56	1503,21
998,73	1523,69
998,89	1531,88
999,06	1523,69
999,23	1540,07
999,39	1519,59
999,56	1595,37
999,73	1548,26
999,90	1482,73
1000,06	1583,08
1000,23	1515,50
1000,40	1564,65
1000,56	1621,99
1000,73	1511,40
1000,90	1550,31
1001,06	1511,40
1001,23	1544,17
1001,40	1646,57
1001,57	1560,55
1001,73	1499,11
1001,90	1474,54
1002,07	1523,69
1002,23	1568,74
1002,40	1511,40
1002,57	1486,83
1002,73	1671,14
1002,90	1507,30
1003,07	1552,36
1003,23	1417,19
1003,40	1456,11
1003,57	1497,07
1003,73	1564,65
1003,90	1587,18
1004,07	1476,59
1004,23	1525,74
1004,40	1581,03
1004,57	1507,30
1004,73	1454,06
1004,90	1484,78
1005,07	1501,16
1005,23	1576,94
1005,40	1413,10
1005,57	1517,54
1005,73	1490,92
1005,90	1478,63
1006,07	1650,66
1006,23	1550,31
1006,40	1560,55
1006,57	1480,68
1006,73	1511,40
1006,90	1499,11
1007,06	1460,20
1007,23	1499,11
1007,40	1544,17
1007,56	1505,26
1007,73	1535,98
1007,90	1497,07
1008,06	1519,59
1008,23	1554,41
1008,40	1593,32
1008,56	1529,83
1008,73	1576,94
1008,89	1505,26
1009,06	1697,77
1009,23	1460,20
1009,39	1576,94
1009,56	1576,94
1009,72	1593,32
1009,89	1558,50
1010,06	1470,44
1010,22	1538,02
1010,39	1515,50
1010,55	1605,61
1010,72	1585,13
1010,89	1509,35
1011,05	1619,94
1011,22	1497,07
1011,38	1478,63
1011,55	1484,78
1011,72	1464,30
1011,88	1503,21
1012,05	1654,76
1012,21	1560,55
1012,38	1425,39
1012,55	1568,74
1012,71	1488,87
1012,88	1523,69
1013,04	1552,36
1013,21	1515,50
1013,37	1581,03
1013,54	1486,83
1013,71	1546,22
1013,87	1542,12
1014,04	1544,17
1014,20	1662,95
1014,37	1589,22
1014,53	1513,45
1014,70	1490,92
1014,87	1521,64
1015,03	1650,66
1015,20	1503,21
1015,36	1527,78
1015,53	1529,83
1015,69	1540,07
1015,86	1556,46
1016,02	1562,60
1016,19	1609,70
1016,36	1495,02
1016,52	1566,70
1016,69	1509,35
1016,85	1572,84
1017,02	1583,08
1017,18	1433,58
1017,35	1484,78
1017,51	1550,31
1017,68	1599,46
1017,84	1482,73
1018,01	1460,20
1018,17	1562,60
1018,34	1624,04
1018,50	1480,68
1018,67	1523,69
1018,84	1593,32
1019,00	1540,07
1019,17	1517,54
1019,33	1564,65
1019,50	1609,70
1019,66	1574,89
1019,83	1464,30
1019,99	1615,85
1020,16	1425,39
1020,32	1527,78
1020,49	1583,08
1020,65	1568,74
1020,82	1607,66
1020,98	1578,98
1021,15	1562,60
1021,31	1531,88
1021,48	1556,46
1021,64	1501,16
1021,81	1621,99
1021,97	1490,92
1022,14	1523,69
1022,30	1581,03
1022,47	1593,32
1022,63	1464,30
1022,79	1554,41
1022,96	1603,56
1023,12	1566,70
1023,29	1527,78
1023,45	1644,52
1023,62	1601,51
1023,78	1564,65
1023,95	1558,50
1024,11	1529,83
1024,28	1482,73
1024,44	1566,70
1024,61	1488,87
1024,77	1581,03
1024,94	1540,07
1025,10	1519,59
1025,26	1441,77
1025,43	1513,45
1025,59	1531,88
1025,76	1554,41
1025,92	1550,31
1026,09	1570,79
1026,25	1560,55
1026,42	1466,35
1026,58	1523,69
1026,74	1554,41
1026,91	1495,02
1027,07	1583,08
1027,24	1603,56
1027,40	1540,07
1027,57	1601,51
1027,73	1576,94
1027,90	1632,23
1028,06	1562,60
1028,22	1474,54
1028,39	1540,07
1028,55	1525,74
1028,72	1519,59
1028,88	1572,84
1029,04	1484,78
1029,21	1599,46
1029,37	1527,78
1029,54	1581,03
1029,70	1505,26
1029,87	1429,48
1030,03	1478,63
1030,19	1669,09
1030,36	1556,46
1030,52	1562,60
1030,69	1515,50
1030,85	1409,00
1031,01	1593,32
1031,18	1478,63
1031,34	1550,31
1031,50	1497,07
1031,67	1509,35
1031,83	1593,32
1032,00	1492,97
1032,16	1576,94
1032,32	1605,61
1032,49	1595,37
1032,65	1624,04
1032,82	1574,89
1032,98	1476,59
1033,14	1478,63
1033,31	1556,46
1033,47	1654,76
1033,63	1564,65
1033,80	1499,11
1033,96	1464,30
1034,13	1603,56
1034,29	1601,51
1034,45	1570,79
1034,62	1529,83
1034,78	1634,28
1034,94	1452,01
1035,11	1632,23
1035,27	1470,44
1035,43	1634,28
1035,60	1578,98
1035,76	1478,63
1035,92	1476,59
1036,09	1474,54
1036,25	1572,84
1036,41	1552,36
1036,58	1644,52
1036,74	1544,17
1036,90	1468,39
1037,07	1527,78
1037,23	1519,59
1037,39	1630,18
1037,56	1548,26
1037,72	1540,07
1037,88	1550,31
1038,05	1517,54
1038,21	1593,32
1038,37	1546,22
1038,54	1529,83
1038,70	1656,81
1038,86	1609,70
1039,03	1515,50
1039,19	1589,22
1039,35	1519,59
1039,52	1529,83
1039,68	1511,40
1039,84	1517,54
1040,00	1583,08
1040,17	1519,59
1040,33	1529,83
1040,49	1482,73
1040,66	1552,36
1040,82	1505,26
1040,98	1548,26
1041,15	1517,54
1041,31	1562,60
1041,47	1460,20
1041,63	1447,91
1041,80	1538,02
1041,96	1632,23
1042,12	1517,54
1042,29	1521,64
1042,45	1677,29
1042,61	1499,11
1042,77	1636,33
1042,94	1665,00
1043,10	1746,92
1043,26	1507,30
1043,42	1441,77
1043,59	1576,94
1043,75	1621,99
1043,91	1525,74
1044,07	1533,93
1044,24	1501,16
1044,40	1550,31
>>>>>End Processed Spectral Data<<<<<
