SpectraSuite Data File
++++++++++++++++++++++++++++++++++++
Date: Wed Sep 25 10:30:29 GMT-03:00 2024
User: Lavfis
Dark Spectrum Present: No
Reference Spectrum Present: No
Number of Sampled Component Spectra: 1
Spectrometers: USB4F02573
Integration Time (usec): 100000 (USB4F02573)
Spectra Averaged: 1 (USB4F02573)
Boxcar Smoothing: 0 (USB4F02573)
Correct for Electrical Dark: No (USB4F02573)
Strobe/Lamp Enabled: No (USB4F02573)
Correct for Detector Non-linearity: No (USB4F02573)
Correct for Stray Light: No (USB4F02573)
Number of Pixels in Processed Spectrum: 3648
>>>>>Begin Processed Spectral Data<<<<<
345,22	1337,32
345,44	1337,32
345,66	1337,32
345,88	1329,13
346,10	1329,13
346,32	1597,42
346,54	1576,94
346,75	1624,04
346,97	1564,65
347,19	1601,51
347,41	1572,84
347,63	1525,74
347,85	1505,26
348,07	1581,03
348,29	1607,66
348,51	1572,84
348,73	1507,30
348,95	1490,92
349,16	1517,54
349,38	1462,25
349,60	1511,40
349,82	1458,15
350,04	1624,04
350,26	1658,85
350,48	1632,23
350,70	1591,27
350,92	1460,20
351,14	1619,94
351,35	1624,04
351,57	1544,17
351,79	1538,02
352,01	1476,59
352,23	1507,30
352,45	1554,41
352,67	1605,61
352,89	1533,93
353,10	1535,98
353,32	1531,88
353,54	1576,94
353,76	1609,70
353,98	1609,70
354,20	1562,60
354,42	1570,79
354,64	1560,55
354,85	1552,36
355,07	1511,40
355,29	1548,26
355,51	1519,59
355,73	1550,31
355,95	1501,16
356,17	1525,74
356,38	1546,22
356,60	1513,45
356,82	1617,90
357,04	1556,46
357,26	1509,35
357,48	1628,14
357,69	1591,27
357,91	1511,40
358,13	1591,27
358,35	1554,41
358,57	1535,98
358,79	1605,61
359,01	1570,79
359,22	1548,26
359,44	1566,70
359,66	1570,79
359,88	1521,64
360,10	1531,88
360,32	1476,59
360,53	1531,88
360,75	1617,90
360,97	1599,46
361,19	1544,17
361,41	1689,57
361,62	1605,61
361,84	1576,94
362,06	1476,59
362,28	1501,16
362,50	1597,42
362,72	1587,18
362,93	1492,97
363,15	1470,44
363,37	1464,30
363,59	1605,61
363,81	1564,65
364,02	1585,13
364,24	1445,87
364,46	1572,84
364,68	1503,21
364,90	1642,47
365,11	1540,07
365,33	1693,67
365,55	1538,02
365,77	1540,07
365,99	1484,78
366,20	1687,53
366,42	1621,99
366,64	1470,44
366,86	1529,83
367,07	1556,46
367,29	1501,16
367,51	1505,26
367,73	1540,07
367,95	1503,21
368,16	1615,85
368,38	1578,98
368,60	1611,75
368,82	1540,07
369,03	1662,95
369,25	1632,23
369,47	1554,41
369,69	1525,74
369,91	1527,78
370,12	1476,59
370,34	1503,21
370,56	1533,93
370,78	1521,64
370,99	1597,42
371,21	1548,26
371,43	1462,25
371,65	1484,78
371,86	1492,97
372,08	1546,22
372,30	1552,36
372,52	1540,07
372,73	1443,82
372,95	1609,70
373,17	1474,54
373,39	1587,18
373,60	1609,70
373,82	1599,46
374,04	1574,89
374,26	1587,18
374,47	1603,56
374,69	1546,22
374,91	1654,76
375,12	1609,70
375,34	1507,30
375,56	1574,89
375,78	1519,59
375,99	1554,41
376,21	1660,90
376,43	1554,41
376,65	1609,70
376,86	1538,02
377,08	1560,55
377,30	1581,03
377,51	1531,88
377,73	1517,54
377,95	1482,73
378,17	1538,02
378,38	1521,64
378,60	1560,55
378,82	1581,03
379,03	1628,14
379,25	1638,38
379,47	1658,85
379,68	1495,02
379,90	1406,95
380,12	1554,41
380,34	1501,16
380,55	1546,22
380,77	1521,64
380,99	1566,70
381,20	1626,09
381,42	1593,32
381,64	1482,73
381,85	1482,73
382,07	1654,76
382,29	1550,31
382,50	1593,32
382,72	1613,80
382,94	1587,18
383,15	1558,50
383,37	1476,59
383,59	1576,94
383,80	1486,83
384,02	1540,07
384,24	1566,70
384,45	1562,60
384,67	1609,70
384,89	1554,41
385,10	1535,98
385,32	1574,89
385,54	1531,88
385,75	1542,12
385,97	1607,66
386,19	1576,94
386,40	1572,84
386,62	1517,54
386,84	1523,69
387,05	1601,51
387,27	1507,30
387,49	1490,92
387,70	1540,07
387,92	1607,66
388,14	1501,16
388,35	1517,54
388,57	1519,59
388,79	1585,13
389,00	1509,35
389,22	1511,40
389,43	1560,55
389,65	1609,70
389,87	1599,46
390,08	1515,50
390,30	1624,04
390,52	1574,89
390,73	1556,46
390,95	1464,30
391,17	1529,83
391,38	1550,31
391,60	1656,81
391,81	1599,46
392,03	1501,16
392,25	1464,30
392,46	1441,77
392,68	1538,02
392,89	1513,45
393,11	1517,54
393,33	1589,22
393,54	1548,26
393,76	1599,46
393,98	1617,90
394,19	1558,50
394,41	1458,15
394,62	1413,10
394,84	1540,07
395,06	1591,27
395,27	1621,99
395,49	1513,45
395,70	1613,80
395,92	1581,03
396,13	1478,63
396,35	1550,31
396,57	1531,88
396,78	1515,50
397,00	1472,49
397,21	1572,84
397,43	1615,85
397,65	1587,18
397,86	1523,69
398,08	1540,07
398,29	1587,18
398,51	1488,87
398,72	1603,56
398,94	1646,57
399,16	1636,33
399,37	1607,66
399,59	1650,66
399,80	1572,84
400,02	1572,84
400,23	1581,03
400,45	1564,65
400,67	1609,70
400,88	1529,83
401,10	1552,36
401,31	1538,02
401,53	1535,98
401,74	1503,21
401,96	1617,90
402,17	1525,74
402,39	1538,02
402,61	1542,12
402,82	1505,26
403,04	1630,18
403,25	1587,18
403,47	1630,18
403,68	1540,07
403,90	1624,04
404,11	1501,16
404,33	1452,01
404,54	1609,70
404,76	1519,59
404,97	1554,41
405,19	1636,33
405,41	1535,98
405,62	1617,90
405,84	1497,07
406,05	1665,00
406,27	1501,16
406,48	1589,22
406,70	1497,07
406,91	1515,50
407,13	1484,78
407,34	1497,07
407,56	1566,70
407,77	1570,79
407,99	1556,46
408,20	1630,18
408,42	1523,69
408,63	1599,46
408,85	1515,50
409,06	1587,18
409,28	1640,42
409,49	1505,26
409,71	1550,31
409,92	1581,03
410,14	1501,16
410,35	1652,71
410,57	1624,04
410,78	1509,35
411,00	1531,88
411,21	1568,74
411,43	1585,13
411,64	1642,47
411,86	1570,79
412,07	1609,70
412,29	1642,47
412,50	1509,35
412,72	1597,42
412,93	1777,64
413,15	1576,94
413,36	1562,60
413,58	1665,00
413,79	1531,88
414,01	1621,99
414,22	1609,70
414,43	1660,90
414,65	1605,61
414,86	1558,50
415,08	1560,55
415,29	1609,70
415,51	1533,93
415,72	1503,21
415,94	1552,36
416,15	1615,85
416,37	1593,32
416,58	1552,36
416,80	1568,74
417,01	1564,65
417,22	1495,02
417,44	1648,61
417,65	1574,89
417,87	1548,26
418,08	1644,52
418,30	1544,17
418,51	1515,50
418,73	1617,90
418,94	1564,65
419,15	1578,98
419,37	1613,80
419,58	1523,69
419,80	1515,50
420,01	1677,29
420,23	1587,18
420,44	1615,85
420,65	1564,65
420,87	1599,46
421,08	1597,42
421,30	1683,43
421,51	1482,73
421,73	1525,74
421,94	1533,93
422,15	1546,22
422,37	1560,55
422,58	1515,50
422,80	1550,31
423,01	1570,79
423,22	1445,87
423,44	1431,53
423,65	1644,52
423,87	1476,59
424,08	1587,18
424,29	1468,39
424,51	1570,79
424,72	1525,74
424,94	1566,70
425,15	1480,68
425,36	1570,79
425,58	1572,84
425,79	1587,18
426,01	1595,37
426,22	1566,70
426,43	1607,66
426,65	1513,45
426,86	1556,46
427,08	1591,27
427,29	1443,82
427,50	1513,45
427,72	1517,54
427,93	1583,08
428,14	1497,07
428,36	1488,87
428,57	1519,59
428,79	1548,26
429,00	1558,50
429,21	1568,74
429,43	1538,02
429,64	1529,83
429,85	1515,50
430,07	1597,42
430,28	1533,93
430,49	1542,12
430,71	1560,55
430,92	1583,08
431,14	1607,66
431,35	1523,69
431,56	1552,36
431,78	1540,07
431,99	1548,26
432,20	1597,42
432,42	1570,79
432,63	1566,70
432,84	1562,60
433,06	1531,88
433,27	1601,51
433,48	1607,66
433,70	1585,13
433,91	1587,18
434,12	1445,87
434,34	1550,31
434,55	1615,85
434,76	1452,01
434,98	1605,61
435,19	1525,74
435,40	1458,15
435,62	1552,36
435,83	1671,14
436,04	1605,61
436,26	1593,32
436,47	1523,69
436,68	1538,02
436,90	1587,18
437,11	1574,89
437,32	1519,59
437,54	1621,99
437,75	1503,21
437,96	1583,08
438,17	1501,16
438,39	1513,45
438,60	1564,65
438,81	1585,13
439,03	1619,94
439,24	1437,67
439,45	1548,26
439,67	1445,87
439,88	1609,70
440,09	1552,36
440,30	1630,18
440,52	1515,50
440,73	1521,64
440,94	1568,74
441,16	1570,79
441,37	1531,88
441,58	1513,45
441,80	1589,22
442,01	1482,73
442,22	1570,79
442,43	1505,26
442,65	1699,81
442,86	1529,83
443,07	1535,98
443,28	1409,00
443,50	1531,88
443,71	1607,66
443,92	1517,54
444,14	1501,16
444,35	1568,74
444,56	1523,69
444,77	1480,68
444,99	1562,60
445,20	1486,83
445,41	1636,33
445,62	1587,18
445,84	1544,17
446,05	1548,26
446,26	1621,99
446,47	1646,57
446,69	1548,26
446,90	1591,27
447,11	1718,25
447,32	1529,83
447,54	1544,17
447,75	1480,68
447,96	1501,16
448,17	1572,84
448,39	1562,60
448,60	1490,92
448,81	1568,74
449,02	1624,04
449,23	1576,94
449,45	1595,37
449,66	1556,46
449,87	1507,30
450,08	1527,78
450,30	1568,74
450,51	1511,40
450,72	1585,13
450,93	1538,02
451,15	1589,22
451,36	1544,17
451,57	1546,22
451,78	1562,60
451,99	1568,74
452,21	1484,78
452,42	1533,93
452,63	1574,89
452,84	1460,20
453,05	1558,50
453,27	1574,89
453,48	1710,05
453,69	1519,59
453,90	1538,02
454,11	1560,55
454,33	1525,74
454,54	1535,98
454,75	1527,78
454,96	1511,40
455,17	1503,21
455,39	1533,93
455,60	1542,12
455,81	1585,13
456,02	1531,88
456,23	1601,51
456,45	1564,65
456,66	1624,04
456,87	1558,50
457,08	1609,70
457,29	1615,85
457,50	1443,82
457,72	1564,65
457,93	1499,11
458,14	1581,03
458,35	1513,45
458,56	1595,37
458,77	1507,30
458,99	1619,94
459,20	1542,12
459,41	1572,84
459,62	1554,41
459,83	1603,56
460,04	1527,78
460,26	1535,98
460,47	1556,46
460,68	1566,70
460,89	1523,69
461,10	1636,33
461,31	1572,84
461,52	1525,74
461,74	1619,94
461,95	1527,78
462,16	1521,64
462,37	1558,50
462,58	1597,42
462,79	1568,74
463,00	1501,16
463,22	1638,38
463,43	1564,65
463,64	1581,03
463,85	1517,54
464,06	1560,55
464,27	1525,74
464,48	1562,60
464,70	1554,41
464,91	1605,61
465,12	1607,66
465,33	1578,98
465,54	1675,24
465,75	1546,22
465,96	1509,35
466,17	1517,54
466,38	1529,83
466,60	1589,22
466,81	1562,60
467,02	1656,81
467,23	1527,78
467,44	1607,66
467,65	1556,46
467,86	1679,33
468,07	1452,01
468,28	1540,07
468,50	1556,46
468,71	1679,33
468,92	1611,75
469,13	1558,50
469,34	1513,45
469,55	1490,92
469,76	1533,93
469,97	1632,23
470,18	1490,92
470,39	1542,12
470,60	1517,54
470,82	1568,74
471,03	1521,64
471,24	1515,50
471,45	1556,46
471,66	1519,59
471,87	1511,40
472,08	1558,50
472,29	1558,50
472,50	1538,02
472,71	1538,02
472,92	1527,78
473,13	1490,92
473,34	1605,61
473,55	1495,02
473,77	1576,94
473,98	1638,38
474,19	1605,61
474,40	1474,54
474,61	1546,22
474,82	1441,77
475,03	1593,32
475,24	1478,63
475,45	1576,94
475,66	1589,22
475,87	1550,31
476,08	1540,07
476,29	1648,61
476,50	1662,95
476,71	1656,81
476,92	1497,07
477,13	1558,50
477,34	1548,26
477,55	1587,18
477,76	1585,13
477,97	1476,59
478,18	1568,74
478,40	1482,73
478,61	1535,98
478,82	1511,40
479,03	1546,22
479,24	1564,65
479,45	1554,41
479,66	1542,12
479,87	1619,94
480,08	1523,69
480,29	1544,17
480,50	1617,90
480,71	1515,50
480,92	1554,41
481,13	1554,41
481,34	1529,83
481,55	1433,58
481,76	1503,21
481,97	1544,17
482,18	1585,13
482,39	1540,07
482,60	1562,60
482,81	1513,45
483,02	1605,61
483,23	1671,14
483,44	1583,08
483,65	1517,54
483,86	1578,98
484,07	1632,23
484,28	1566,70
484,49	1546,22
484,70	1531,88
484,91	1501,16
485,12	1570,79
485,33	1515,50
485,54	1591,27
485,75	1523,69
485,96	1570,79
486,17	1578,98
486,38	1511,40
486,59	1544,17
486,80	1589,22
487,01	1439,72
487,21	1482,73
487,42	1495,02
487,63	1654,76
487,84	1576,94
488,05	1587,18
488,26	1662,95
488,47	1599,46
488,68	1486,83
488,89	1628,14
489,10	1449,96
489,31	1675,24
489,52	1546,22
489,73	1599,46
489,94	1669,09
490,15	1593,32
490,36	1572,84
490,57	1597,42
490,78	1497,07
490,99	1523,69
491,20	1503,21
491,41	1591,27
491,61	1665,00
491,82	1578,98
492,03	1599,46
492,24	1533,93
492,45	1484,78
492,66	1644,52
492,87	1533,93
493,08	1568,74
493,29	1517,54
493,50	1515,50
493,71	1513,45
493,92	1570,79
494,13	1566,70
494,34	1454,06
494,54	1601,51
494,75	1546,22
494,96	1601,51
495,17	1638,38
495,38	1495,02
495,59	1517,54
495,80	1554,41
496,01	1660,90
496,22	1546,22
496,43	1472,49
496,64	1554,41
496,84	1462,25
497,05	1556,46
497,26	1630,18
497,47	1517,54
497,68	1521,64
497,89	1523,69
498,10	1560,55
498,31	1652,71
498,52	1662,95
498,72	1630,18
498,93	1583,08
499,14	1533,93
499,35	1474,54
499,56	1521,64
499,77	1488,87
499,98	1564,65
500,19	1611,75
500,40	1535,98
500,60	1484,78
500,81	1630,18
501,02	1538,02
501,23	1509,35
501,44	1499,11
501,65	1587,18
501,86	1488,87
502,06	1538,02
502,27	1517,54
502,48	1527,78
502,69	1617,90
502,90	1578,98
503,11	1511,40
503,32	1607,66
503,53	1542,12
503,73	1515,50
503,94	1548,26
504,15	1648,61
504,36	1591,27
504,57	1507,30
504,78	1482,73
504,98	1574,89
505,19	1523,69
505,40	1458,15
505,61	1431,53
505,82	1589,22
506,03	1576,94
506,23	1484,78
506,44	1542,12
506,65	1644,52
506,86	1548,26
507,07	1501,16
507,28	1570,79
507,48	1548,26
507,69	1636,33
507,90	1535,98
508,11	1472,49
508,32	1554,41
508,53	1429,48
508,73	1476,59
508,94	1585,13
509,15	1583,08
509,36	1527,78
509,57	1480,68
509,77	1499,11
509,98	1525,74
510,19	1492,97
510,40	1591,27
510,61	1513,45
510,81	1523,69
511,02	1662,95
511,23	1517,54
511,44	1550,31
511,65	1521,64
511,85	1597,42
512,06	1468,39
512,27	1540,07
512,48	1480,68
512,69	1605,61
512,89	1527,78
513,10	1552,36
513,31	1554,41
513,52	1531,88
513,73	1513,45
513,93	1564,65
514,14	1572,84
514,35	1583,08
514,56	1589,22
514,76	1593,32
514,97	1599,46
515,18	1628,14
515,39	1601,51
515,60	1626,09
515,80	1621,99
516,01	1601,51
516,22	1630,18
516,43	1429,48
516,63	1570,79
516,84	1644,52
517,05	1564,65
517,26	1562,60
517,46	1548,26
517,67	1554,41
517,88	1583,08
518,09	1482,73
518,29	1576,94
518,50	1697,77
518,71	1568,74
518,92	1617,90
519,12	1560,55
519,33	1564,65
519,54	1574,89
519,75	1585,13
519,95	1523,69
520,16	1529,83
520,37	1454,06
520,57	1605,61
520,78	1648,61
520,99	1556,46
521,20	1531,88
521,40	1519,59
521,61	1642,47
521,82	1439,72
522,03	1437,67
522,23	1527,78
522,44	1560,55
522,65	1466,35
522,85	1484,78
523,06	1484,78
523,27	1507,30
523,48	1603,56
523,68	1523,69
523,89	1527,78
524,10	1546,22
524,30	1490,92
524,51	1531,88
524,72	1552,36
524,93	1488,87
525,13	1492,97
525,34	1562,60
525,55	1595,37
525,75	1546,22
525,96	1480,68
526,17	1454,06
526,37	1595,37
526,58	1611,75
526,79	1449,96
526,99	1531,88
527,20	1581,03
527,41	1480,68
527,62	1523,69
527,82	1554,41
528,03	1527,78
528,24	1507,30
528,44	1593,32
528,65	1527,78
528,86	1529,83
529,06	1548,26
529,27	1570,79
529,48	1542,12
529,68	1593,32
529,89	1562,60
530,10	1640,42
530,30	1552,36
530,51	1460,20
530,72	1544,17
530,92	1548,26
531,13	1542,12
531,34	1574,89
531,54	1486,83
531,75	1540,07
531,96	1699,81
532,16	1621,99
532,37	1566,70
532,57	1615,85
532,78	1535,98
532,99	1585,13
533,19	1597,42
533,40	1626,09
533,61	1546,22
533,81	1554,41
534,02	1503,21
534,23	1535,98
534,43	1527,78
534,64	1603,56
534,84	1587,18
535,05	1525,74
535,26	1548,26
535,46	1591,27
535,67	1589,22
535,88	1464,30
536,08	1492,97
536,29	1558,50
536,49	1558,50
536,70	1533,93
536,91	1366,00
537,11	1581,03
537,32	1548,26
537,53	1593,32
537,73	1603,56
537,94	1456,11
538,14	1535,98
538,35	1581,03
538,56	1478,63
538,76	1476,59
538,97	1525,74
539,17	1558,50
539,38	1638,38
539,59	1572,84
539,79	1587,18
540,00	1589,22
540,20	1654,76
540,41	1613,80
540,62	1781,73
540,82	1497,07
541,03	1576,94
541,23	1572,84
541,44	1531,88
541,64	1583,08
541,85	1558,50
542,06	1591,27
542,26	1560,55
542,47	1550,31
542,67	1568,74
542,88	1578,98
543,08	1630,18
543,29	1515,50
543,50	1542,12
543,70	1712,10
543,91	1556,46
544,11	1544,17
544,32	1605,61
544,52	1669,09
544,73	1435,63
544,94	1513,45
545,14	1470,44
545,35	1568,74
545,55	1562,60
545,76	1572,84
545,96	1492,97
546,17	1525,74
546,37	1576,94
546,58	1570,79
546,78	1462,25
546,99	1568,74
547,20	1566,70
547,40	1552,36
547,61	1621,99
547,81	1460,20
548,02	1488,87
548,22	1554,41
548,43	1673,19
548,63	1554,41
548,84	1619,94
549,04	1581,03
549,25	1484,78
549,45	1468,39
549,66	1456,11
549,86	1556,46
550,07	1624,04
550,27	1529,83
550,48	1552,36
550,69	1538,02
550,89	1583,08
551,10	1544,17
551,30	1683,43
551,51	1515,50
551,71	1601,51
551,92	1578,98
552,12	1566,70
552,33	1531,88
552,53	1458,15
552,74	1574,89
552,94	1634,28
553,15	1507,30
553,35	1581,03
553,56	1603,56
553,76	1556,46
553,97	1644,52
554,17	1511,40
554,38	1613,80
554,58	1519,59
554,79	1499,11
554,99	1517,54
555,19	1419,24
555,40	1587,18
555,60	1566,70
555,81	1460,20
556,01	1591,27
556,22	1560,55
556,42	1466,35
556,63	1533,93
556,83	1554,41
557,04	1464,30
557,24	1619,94
557,45	1523,69
557,65	1501,16
557,86	1552,36
558,06	1581,03
558,27	1568,74
558,47	1529,83
558,67	1650,66
558,88	1484,78
559,08	1492,97
559,29	1499,11
559,49	1587,18
559,70	1544,17
559,90	1576,94
560,11	1437,67
560,31	1499,11
560,52	1550,31
560,72	1419,24
560,92	1589,22
561,13	1562,60
561,33	1562,60
561,54	1521,64
561,74	1654,76
561,95	1429,48
562,15	1585,13
562,35	1538,02
562,56	1572,84
562,76	1527,78
562,97	1505,26
563,17	1552,36
563,38	1628,14
563,58	1564,65
563,78	1517,54
563,99	1531,88
564,19	1492,97
564,40	1568,74
564,60	1544,17
564,80	1499,11
565,01	1548,26
565,21	1511,40
565,42	1617,90
565,62	1566,70
565,83	1550,31
566,03	1558,50
566,23	1636,33
566,44	1538,02
566,64	1507,30
566,85	1558,50
567,05	1589,22
567,25	1495,02
567,46	1648,61
567,66	1562,60
567,86	1611,75
568,07	1503,21
568,27	1554,41
568,48	1423,34
568,68	1589,22
568,88	1478,63
569,09	1599,46
569,29	1550,31
569,50	1527,78
569,70	1564,65
569,90	1570,79
570,11	1544,17
570,31	1597,42
570,51	1533,93
570,72	1437,67
570,92	1517,54
571,13	1564,65
571,33	1499,11
571,53	1615,85
571,74	1550,31
571,94	1617,90
572,14	1538,02
572,35	1490,92
572,55	1570,79
572,75	1525,74
572,96	1548,26
573,16	1640,42
573,36	1578,98
573,57	1499,11
573,77	1544,17
573,97	1521,64
574,18	1503,21
574,38	1521,64
574,59	1617,90
574,79	1578,98
574,99	1540,07
575,20	1605,61
575,40	1472,49
575,60	1511,40
575,81	1628,14
576,01	1548,26
576,21	1556,46
576,42	1546,22
576,62	1470,44
576,82	1517,54
577,02	1513,45
577,23	1533,93
577,43	1535,98
577,63	1538,02
577,84	1509,35
578,04	1546,22
578,24	1447,91
578,45	1533,93
578,65	1499,11
578,85	1535,98
579,06	1613,80
579,26	1589,22
579,46	1492,97
579,67	1570,79
579,87	1630,18
580,07	1583,08
580,27	1513,45
580,48	1533,93
580,68	1529,83
580,88	1581,03
581,09	1468,39
581,29	1566,70
581,49	1554,41
581,69	1472,49
581,90	1519,59
582,10	1523,69
582,30	1613,80
582,51	1572,84
582,71	1478,63
582,91	1497,07
583,11	1595,37
583,32	1566,70
583,52	1497,07
583,72	1486,83
583,93	1568,74
584,13	1566,70
584,33	1554,41
584,53	1560,55
584,74	1556,46
584,94	1390,57
585,14	1517,54
585,34	1540,07
585,55	1552,36
585,75	1566,70
585,95	1521,64
586,15	1476,59
586,36	1535,98
586,56	1626,09
586,76	1513,45
586,96	1482,73
587,17	1474,54
587,37	1535,98
587,57	1484,78
587,77	1572,84
587,98	1591,27
588,18	1564,65
588,38	1497,07
588,58	1552,36
588,79	1550,31
588,99	1429,48
589,19	1556,46
589,39	1644,52
589,60	1474,54
589,80	1566,70
590,00	1576,94
590,20	1540,07
590,40	1562,60
590,61	1513,45
590,81	1476,59
591,01	1556,46
591,21	1597,42
591,42	1468,39
591,62	1523,69
591,82	1507,30
592,02	1669,09
592,22	1632,23
592,43	1570,79
592,63	1587,18
592,83	1658,85
593,03	1648,61
593,23	1566,70
593,44	1576,94
593,64	1531,88
593,84	1499,11
594,04	1538,02
594,24	1558,50
594,45	1511,40
594,65	1490,92
594,85	1570,79
595,05	1546,22
595,25	1556,46
595,46	1660,90
595,66	1548,26
595,86	1630,18
596,06	1507,30
596,26	1544,17
596,46	1576,94
596,67	1566,70
596,87	1568,74
597,07	1499,11
597,27	1490,92
597,47	1566,70
597,67	1601,51
597,88	1540,07
598,08	1615,85
598,28	1552,36
598,48	1574,89
598,68	1538,02
598,88	1626,09
599,09	1708,01
599,29	1572,84
599,49	1585,13
599,69	1593,32
599,89	1583,08
600,09	1572,84
600,30	1648,61
600,50	1685,48
600,70	1597,42
600,90	1513,45
601,10	1624,04
601,30	1626,09
601,50	1615,85
601,71	1671,14
601,91	1652,71
602,11	1501,16
602,31	1572,84
602,51	1585,13
602,71	1531,88
602,91	1550,31
603,11	1609,70
603,32	1714,15
603,52	1581,03
603,72	1699,81
603,92	1544,17
604,12	1644,52
604,32	1544,17
604,52	1677,29
604,72	1531,88
604,93	1650,66
605,13	1642,47
605,33	1675,24
605,53	1572,84
605,73	1568,74
605,93	1687,53
606,13	1609,70
606,33	1550,31
606,53	1595,37
606,74	1638,38
606,94	1689,57
607,14	1632,23
607,34	1572,84
607,54	1554,41
607,74	1679,33
607,94	1523,69
608,14	1619,94
608,34	1574,89
608,54	1671,14
608,74	1679,33
608,95	1607,66
609,15	1652,71
609,35	1552,36
609,55	1607,66
609,75	1665,00
609,95	1757,16
610,15	1564,65
610,35	1652,71
610,55	1681,38
610,75	1568,74
610,95	1542,12
611,15	1650,66
611,35	1738,73
611,55	1689,57
611,76	1667,05
611,96	1712,10
612,16	1740,77
612,36	1681,38
612,56	1785,83
612,76	1720,29
612,96	1724,39
613,16	1826,79
613,36	1816,55
613,56	1767,40
613,76	1689,57
613,96	1642,47
614,16	1632,23
614,36	1619,94
614,56	1769,44
614,76	1691,62
614,96	1697,77
615,16	1712,10
615,36	1710,05
615,56	1744,87
615,76	1683,43
615,97	1687,53
616,17	1753,06
616,37	1794,02
616,57	1832,93
616,77	1851,36
616,97	1939,43
617,17	1748,97
617,37	1798,12
617,57	1728,49
617,77	1810,40
617,97	1834,98
618,17	1765,35
618,37	1894,37
618,57	1822,69
618,77	1820,64
618,97	1808,36
619,17	1873,89
619,37	1908,71
619,57	1847,27
619,77	1773,54
619,97	1949,67
620,17	1902,56
620,37	1931,23
620,57	1806,31
620,77	1927,14
620,97	1863,65
621,17	1873,89
621,37	1783,78
621,57	1918,95
621,77	1820,64
621,97	1957,86
622,17	1959,91
622,37	1968,10
622,57	1996,77
622,77	1955,81
622,97	1916,90
623,17	1904,61
623,37	2054,11
623,57	2035,68
623,77	1904,61
623,97	1994,72
624,16	1947,62
624,36	1986,53
624,56	2011,11
624,76	2000,87
624,96	1933,28
625,16	2138,08
625,36	2052,06
625,56	1980,39
625,76	2133,98
625,96	2027,49
626,16	2076,64
626,36	2230,24
626,56	2238,43
626,76	2160,61
626,96	2086,88
627,16	2238,43
627,36	2172,89
627,56	2242,53
627,76	2220,00
627,96	2224,09
628,16	2183,13
628,35	2263,01
628,55	2215,90
628,75	2273,25
628,95	2283,49
629,15	2447,32
629,35	2291,68
629,55	2324,44
629,75	2357,21
629,95	2359,26
630,15	2344,92
630,35	2281,44
630,55	2355,16
630,75	2387,93
630,95	2473,95
631,14	2510,81
631,34	2381,79
631,54	2492,38
631,74	2482,14
631,94	2519,00
632,14	2547,67
632,34	2564,06
632,54	2510,81
632,74	2529,24
632,94	2625,50
633,14	2727,89
633,33	2701,27
633,53	2686,94
633,73	2869,20
633,93	2760,66
634,13	2727,89
634,33	2871,25
634,53	2713,56
634,73	2861,01
634,93	2729,94
635,12	2977,75
635,32	2971,60
635,52	2912,21
635,72	2897,88
635,92	2920,40
636,12	3071,95
636,32	3071,95
636,52	3098,58
636,71	3053,52
636,91	3135,44
637,11	3188,69
637,31	3129,30
637,51	3192,78
637,71	3340,24
637,91	3305,42
638,11	3317,71
638,30	3301,33
638,50	3332,05
638,70	3502,03
638,90	3325,90
639,10	3493,83
639,30	3448,78
639,50	3557,32
639,69	3602,38
639,89	3524,55
640,09	3526,60
640,29	3665,86
640,49	3631,05
640,69	3665,86
640,88	3856,33
641,08	3669,96
641,28	3891,14
641,48	3831,75
641,68	3796,93
641,88	3913,67
642,07	3743,69
642,27	4011,97
642,47	4040,64
642,67	4024,26
642,87	4071,36
643,07	4005,83
643,26	4270,01
643,46	4194,24
643,66	4100,03
643,86	4147,14
644,06	4179,90
644,26	4356,03
644,45	4296,64
644,65	4329,41
644,85	4497,34
645,05	4476,86
645,25	4507,58
645,44	4607,93
645,64	4521,92
645,84	4509,63
646,04	4689,85
646,24	4741,05
646,43	4857,78
646,63	4804,53
646,83	4865,97
647,03	5023,67
647,23	4870,07
647,42	5154,74
647,62	5263,28
647,82	5121,97
648,02	5140,40
648,22	5314,48
648,41	5382,06
648,61	5326,77
648,81	5439,40
649,01	5476,27
649,20	5650,35
649,40	5613,48
649,60	5842,85
649,80	5707,69
650,00	5797,80
650,19	5896,10
650,39	6068,13
650,59	5980,07
650,79	6088,61
650,98	6098,85
651,18	6252,45
651,38	6311,84
651,58	6281,12
651,77	6401,95
651,97	6356,90
652,17	6479,77
652,37	6408,09
652,56	6520,73
652,76	6717,34
652,96	6832,02
653,16	6705,05
653,35	6727,58
653,55	6723,48
653,75	6778,78
653,95	6727,58
654,14	6868,89
654,34	6858,65
654,54	6784,92
654,74	6918,04
654,93	7163,79
655,13	7065,49
655,33	6938,52
655,52	6985,62
655,72	7034,77
655,92	6967,19
656,12	7079,83
656,31	7151,51
656,51	7141,27
656,71	7020,44
656,91	6975,38
657,10	7149,46
657,30	7030,68
657,50	6786,97
657,69	6934,42
657,89	6977,43
658,09	6928,28
658,29	6780,82
658,48	6756,25
658,68	6676,38
658,88	6813,59
659,07	6354,85
659,27	6426,53
659,47	6317,98
659,66	6256,54
659,86	6213,54
660,06	6131,62
660,26	5973,92
660,45	6064,04
660,65	5961,64
660,85	5773,22
661,04	5560,24
661,24	5455,79
661,44	5343,15
661,63	5496,75
661,83	5373,87
662,03	5095,35
662,22	4978,61
662,42	4964,28
662,62	4763,58
662,81	4669,37
663,01	4630,46
663,21	4556,73
663,40	4538,30
663,60	4421,56
663,80	4300,73
663,99	4396,99
664,19	4149,18
664,39	3962,82
664,58	4011,97
664,78	3950,53
664,98	3622,86
665,17	3758,02
665,37	3676,10
665,57	3565,51
665,76	3454,92
665,96	3399,63
666,16	3258,32
666,35	3229,65
666,55	3149,78
666,74	3219,41
666,94	3090,38
667,14	3043,28
667,33	3053,52
667,53	2959,31
667,73	2852,82
667,92	2885,59
668,12	2748,37
668,32	2922,45
668,51	2658,26
668,71	2658,26
668,90	2547,67
669,10	2570,20
669,30	2527,19
669,49	2629,59
669,69	2494,43
669,89	2455,51
670,08	2363,36
670,28	2633,69
670,47	2369,50
670,67	2344,92
670,87	2312,16
671,06	2326,49
671,26	2265,05
671,45	2197,47
671,65	2138,08
671,85	2144,22
672,04	2162,66
672,24	2131,94
672,43	2160,61
672,63	2113,50
672,83	2074,59
673,02	2041,82
673,22	1966,05
673,41	2058,21
673,61	1974,24
673,81	2052,06
674,00	2166,75
674,20	2068,45
674,39	1943,52
674,59	1990,63
674,78	1894,37
674,98	2144,22
675,18	2013,15
675,37	1898,47
675,57	1912,80
675,76	1990,63
675,96	1961,95
676,15	1880,04
676,35	1824,74
676,55	1855,46
676,74	1849,32
676,94	1916,90
677,13	1787,88
677,33	1875,94
677,52	1847,27
677,72	1769,44
677,91	1673,19
678,11	1779,68
678,31	1740,77
678,50	1802,21
678,70	1716,20
678,89	1785,83
679,09	1800,16
679,28	1730,53
679,48	1781,73
679,67	1771,49
679,87	1742,82
680,06	2004,96
680,26	1798,12
680,46	1665,00
680,65	1726,44
680,85	1705,96
681,04	1660,90
681,24	1624,04
681,43	1732,58
681,63	1695,72
681,82	1652,71
682,02	1628,14
682,21	1728,49
682,41	1564,65
682,60	1732,58
682,80	1695,72
682,99	1675,24
683,19	1665,00
683,38	1599,46
683,58	1720,29
683,77	1624,04
683,97	1679,33
684,16	1767,40
684,36	1560,55
684,55	1644,52
684,75	1572,84
684,94	1654,76
685,14	1621,99
685,33	1527,78
685,53	1593,32
685,72	1646,57
685,92	1597,42
686,11	1636,33
686,31	1650,66
686,50	1710,05
686,70	1578,98
686,89	1660,90
687,09	1542,12
687,28	1546,22
687,48	1570,79
687,67	1593,32
687,87	1613,80
688,06	1601,51
688,26	1593,32
688,45	1523,69
688,65	1515,50
688,84	1611,75
689,03	1507,30
689,23	1542,12
689,42	1687,53
689,62	1626,09
689,81	1685,48
690,01	1642,47
690,20	1630,18
690,40	1611,75
690,59	1662,95
690,79	1533,93
690,98	1611,75
691,17	1589,22
691,37	1648,61
691,56	1570,79
691,76	1648,61
691,95	1589,22
692,15	1531,88
692,34	1574,89
692,54	1554,41
692,73	1564,65
692,92	1574,89
693,12	1568,74
693,31	1552,36
693,51	1638,38
693,70	1593,32
693,90	1572,84
694,09	1540,07
694,28	1603,56
694,48	1595,37
694,67	1603,56
694,87	1640,42
695,06	1624,04
695,26	1548,26
695,45	1535,98
695,64	1501,16
695,84	1527,78
696,03	1540,07
696,23	1589,22
696,42	1525,74
696,61	1531,88
696,81	1515,50
697,00	1521,64
697,20	1527,78
697,39	1474,54
697,58	1449,96
697,78	1576,94
697,97	1632,23
698,17	1542,12
698,36	1538,02
698,55	1513,45
698,75	1595,37
698,94	1501,16
699,14	1566,70
699,33	1509,35
699,52	1519,59
699,72	1535,98
699,91	1595,37
700,10	1562,60
700,30	1648,61
700,49	1548,26
700,69	1509,35
700,88	1583,08
701,07	1505,26
701,27	1519,59
701,46	1605,61
701,65	1527,78
701,85	1548,26
702,04	1642,47
702,23	1495,02
702,43	1515,50
702,62	1527,78
702,82	1531,88
703,01	1628,14
703,20	1576,94
703,40	1538,02
703,59	1603,56
703,78	1581,03
703,98	1654,76
704,17	1535,98
704,36	1535,98
704,56	1636,33
704,75	1486,83
704,94	1523,69
705,14	1591,27
705,33	1591,27
705,52	1480,68
705,72	1527,78
705,91	1525,74
706,10	1556,46
706,30	1525,74
706,49	1550,31
706,68	1572,84
706,88	1566,70
707,07	1519,59
707,26	1484,78
707,46	1624,04
707,65	1603,56
707,84	1560,55
708,04	1452,01
708,23	1593,32
708,42	1486,83
708,62	1513,45
708,81	1484,78
709,00	1658,85
709,19	1564,65
709,39	1462,25
709,58	1558,50
709,77	1484,78
709,97	1560,55
710,16	1585,13
710,35	1691,62
710,55	1556,46
710,74	1605,61
710,93	1533,93
711,12	1638,38
711,32	1495,02
711,51	1626,09
711,70	1413,10
711,90	1513,45
712,09	1484,78
712,28	1515,50
712,47	1529,83
712,67	1552,36
712,86	1560,55
713,05	1568,74
713,24	1540,07
713,44	1531,88
713,63	1542,12
713,82	1535,98
714,02	1480,68
714,21	1572,84
714,40	1574,89
714,59	1523,69
714,79	1523,69
714,98	1572,84
715,17	1662,95
715,36	1572,84
715,56	1605,61
715,75	1538,02
715,94	1621,99
716,13	1603,56
716,33	1548,26
716,52	1538,02
716,71	1535,98
716,90	1499,11
717,10	1507,30
717,29	1507,30
717,48	1636,33
717,67	1550,31
717,87	1585,13
718,06	1527,78
718,25	1538,02
718,44	1599,46
718,63	1576,94
718,83	1505,26
719,02	1484,78
719,21	1552,36
719,40	1495,02
719,60	1499,11
719,79	1613,80
719,98	1515,50
720,17	1548,26
720,36	1568,74
720,56	1523,69
720,75	1564,65
720,94	1525,74
721,13	1548,26
721,33	1490,92
721,52	1533,93
721,71	1564,65
721,90	1644,52
722,09	1581,03
722,29	1560,55
722,48	1472,49
722,67	1490,92
722,86	1681,38
723,05	1509,35
723,24	1546,22
723,44	1490,92
723,63	1550,31
723,82	1550,31
724,01	1562,60
724,20	1587,18
724,40	1523,69
724,59	1503,21
724,78	1505,26
724,97	1433,58
725,16	1535,98
725,35	1613,80
725,55	1552,36
725,74	1595,37
725,93	1695,72
726,12	1540,07
726,31	1609,70
726,51	1576,94
726,70	1531,88
726,89	1587,18
727,08	1556,46
727,27	1630,18
727,46	1546,22
727,65	1611,75
727,85	1550,31
728,04	1581,03
728,23	1437,67
728,42	1554,41
728,61	1566,70
728,80	1591,27
729,00	1601,51
729,19	1533,93
729,38	1621,99
729,57	1501,16
729,76	1427,43
729,95	1615,85
730,14	1624,04
730,33	1562,60
730,53	1499,11
730,72	1431,53
730,91	1544,17
731,10	1626,09
731,29	1685,48
731,48	1556,46
731,67	1415,15
731,86	1499,11
732,06	1562,60
732,25	1454,06
732,44	1548,26
732,63	1447,91
732,82	1587,18
733,01	1570,79
733,20	1466,35
733,39	1572,84
733,59	1474,54
733,78	1519,59
733,97	1601,51
734,16	1595,37
734,35	1546,22
734,54	1562,60
734,73	1523,69
734,92	1568,74
735,11	1460,20
735,30	1511,40
735,49	1570,79
735,69	1685,48
735,88	1529,83
736,07	1574,89
736,26	1540,07
736,45	1554,41
736,64	1499,11
736,83	1636,33
737,02	1595,37
737,21	1550,31
737,40	1474,54
737,59	1638,38
737,78	1490,92
737,98	1523,69
738,17	1544,17
738,36	1673,19
738,55	1501,16
738,74	1507,30
738,93	1499,11
739,12	1519,59
739,31	1521,64
739,50	1439,72
739,69	1644,52
739,88	1472,49
740,07	1595,37
740,26	1548,26
740,45	1576,94
740,64	1511,40
740,83	1519,59
741,02	1511,40
741,22	1615,85
741,41	1501,16
741,60	1619,94
741,79	1470,44
741,98	1564,65
742,17	1603,56
742,36	1595,37
742,55	1554,41
742,74	1685,48
742,93	1615,85
743,12	1560,55
743,31	1564,65
743,50	1611,75
743,69	1607,66
743,88	1507,30
744,07	1583,08
744,26	1644,52
744,45	1527,78
744,64	1632,23
744,83	1562,60
745,02	1521,64
745,21	1533,93
745,40	1505,26
745,59	1630,18
745,78	1472,49
745,97	1574,89
746,16	1589,22
746,35	1570,79
746,54	1470,44
746,73	1499,11
746,92	1523,69
747,11	1501,16
747,30	1523,69
747,49	1533,93
747,68	1523,69
747,87	1531,88
748,06	1611,75
748,25	1613,80
748,44	1558,50
748,63	1535,98
748,82	1507,30
749,01	1482,73
749,20	1458,15
749,39	1527,78
749,58	1529,83
749,77	1597,42
749,96	1527,78
750,15	1517,54
750,34	1447,91
750,53	1499,11
750,72	1564,65
750,91	1503,21
751,10	1562,60
751,29	1558,50
751,48	1372,14
751,67	1441,77
751,86	1605,61
752,04	1609,70
752,23	1556,46
752,42	1460,20
752,61	1533,93
752,80	1542,12
752,99	1535,98
753,18	1560,55
753,37	1523,69
753,56	1398,76
753,75	1523,69
753,94	1486,83
754,13	1615,85
754,32	1458,15
754,51	1544,17
754,70	1597,42
754,89	1470,44
755,08	1558,50
755,27	1521,64
755,45	1570,79
755,64	1581,03
755,83	1585,13
756,02	1542,12
756,21	1544,17
756,40	1558,50
756,59	1517,54
756,78	1445,87
756,97	1513,45
757,16	1503,21
757,35	1628,14
757,54	1591,27
757,72	1621,99
757,91	1472,49
758,10	1521,64
758,29	1439,72
758,48	1576,94
758,67	1535,98
758,86	1452,01
759,05	1427,43
759,24	1626,09
759,43	1544,17
759,61	1507,30
759,80	1507,30
759,99	1615,85
760,18	1544,17
760,37	1546,22
760,56	1556,46
760,75	1615,85
760,94	1521,64
761,13	1548,26
761,31	1597,42
761,50	1511,40
761,69	1531,88
761,88	1464,30
762,07	1480,68
762,26	1611,75
762,45	1511,40
762,64	1540,07
762,82	1404,91
763,01	1558,50
763,20	1554,41
763,39	1583,08
763,58	1544,17
763,77	1474,54
763,96	1511,40
764,14	1527,78
764,33	1558,50
764,52	1542,12
764,71	1587,18
764,90	1515,50
765,09	1503,21
765,27	1490,92
765,46	1501,16
765,65	1484,78
765,84	1497,07
766,03	1628,14
766,22	1542,12
766,41	1497,07
766,59	1441,77
766,78	1611,75
766,97	1456,11
767,16	1527,78
767,35	1509,35
767,54	1662,95
767,72	1578,98
767,91	1556,46
768,10	1535,98
768,29	1497,07
768,48	1531,88
768,66	1492,97
768,85	1511,40
769,04	1607,66
769,23	1470,44
769,42	1552,36
769,61	1585,13
769,79	1511,40
769,98	1564,65
770,17	1499,11
770,36	1646,57
770,55	1501,16
770,73	1611,75
770,92	1570,79
771,11	1611,75
771,30	1488,87
771,49	1599,46
771,67	1605,61
771,86	1445,87
772,05	1458,15
772,24	1495,02
772,42	1490,92
772,61	1581,03
772,80	1474,54
772,99	1445,87
773,18	1605,61
773,36	1497,07
773,55	1581,03
773,74	1535,98
773,93	1583,08
774,11	1472,49
774,30	1558,50
774,49	1501,16
774,68	1556,46
774,87	1587,18
775,05	1458,15
775,24	1462,25
775,43	1581,03
775,62	1482,73
775,80	1568,74
775,99	1519,59
776,18	1544,17
776,37	1519,59
776,55	1626,09
776,74	1632,23
776,93	1566,70
777,12	1609,70
777,30	1513,45
777,49	1544,17
777,68	1544,17
777,87	1515,50
778,05	1497,07
778,24	1505,26
778,43	1552,36
778,62	1519,59
778,80	1503,21
778,99	1601,51
779,18	1560,55
779,36	1617,90
779,55	1462,25
779,74	1572,84
779,93	1587,18
780,11	1568,74
780,30	1470,44
780,49	1581,03
780,68	1523,69
780,86	1626,09
781,05	1544,17
781,24	1558,50
781,42	1603,56
781,61	1509,35
781,80	1488,87
781,98	1591,27
782,17	1585,13
782,36	1523,69
782,55	1527,78
782,73	1548,26
782,92	1695,72
783,11	1546,22
783,29	1531,88
783,48	1552,36
783,67	1581,03
783,85	1540,07
784,04	1576,94
784,23	1523,69
784,42	1552,36
784,60	1507,30
784,79	1595,37
784,98	1507,30
785,16	1607,66
785,35	1460,20
785,54	1654,76
785,72	1699,81
785,91	1642,47
786,10	1583,08
786,28	1605,61
786,47	1621,99
786,66	1589,22
786,84	1605,61
787,03	1595,37
787,22	1533,93
787,40	1546,22
787,59	1576,94
787,78	1499,11
787,96	1503,21
788,15	1560,55
788,34	1595,37
788,52	1544,17
788,71	1607,66
788,89	1556,46
789,08	1488,87
789,27	1673,19
789,45	1638,38
789,64	1505,26
789,83	1488,87
790,01	1560,55
790,20	1523,69
790,39	1544,17
790,57	1505,26
790,76	1515,50
790,95	1470,44
791,13	1490,92
791,32	1542,12
791,50	1576,94
791,69	1583,08
791,88	1587,18
792,06	1648,61
792,25	1560,55
792,43	1521,64
792,62	1546,22
792,81	1478,63
792,99	1488,87
793,18	1531,88
793,37	1538,02
793,55	1474,54
793,74	1527,78
793,92	1595,37
794,11	1480,68
794,30	1433,58
794,48	1630,18
794,67	1437,67
794,85	1497,07
795,04	1456,11
795,23	1540,07
795,41	1476,59
795,60	1581,03
795,78	1478,63
795,97	1609,70
796,15	1599,46
796,34	1609,70
796,53	1550,31
796,71	1574,89
796,90	1675,24
797,08	1415,15
797,27	1605,61
797,46	1552,36
797,64	1511,40
797,83	1564,65
798,01	1591,27
798,20	1570,79
798,38	1548,26
798,57	1499,11
798,76	1499,11
798,94	1458,15
799,13	1540,07
799,31	1531,88
799,50	1488,87
799,68	1462,25
799,87	1558,50
800,05	1562,60
800,24	1464,30
800,43	1515,50
800,61	1654,76
800,80	1665,00
800,98	1472,49
801,17	1484,78
801,35	1472,49
801,54	1542,12
801,72	1562,60
801,91	1527,78
802,09	1492,97
802,28	1540,07
802,46	1605,61
802,65	1492,97
802,84	1585,13
803,02	1562,60
803,21	1546,22
803,39	1462,25
803,58	1599,46
803,76	1550,31
803,95	1527,78
804,13	1482,73
804,32	1566,70
804,50	1599,46
804,69	1521,64
804,87	1540,07
805,06	1624,04
805,24	1562,60
805,43	1525,74
805,61	1556,46
805,80	1599,46
805,98	1527,78
806,17	1562,60
806,35	1480,68
806,54	1560,55
806,72	1521,64
806,91	1503,21
807,09	1488,87
807,28	1566,70
807,46	1499,11
807,65	1591,27
807,83	1503,21
808,02	1497,07
808,20	1619,94
808,39	1501,16
808,57	1556,46
808,76	1556,46
808,94	1597,42
809,13	1535,98
809,31	1521,64
809,49	1624,04
809,68	1476,59
809,86	1613,80
810,05	1548,26
810,23	1597,42
810,42	1640,42
810,60	1433,58
810,79	1488,87
810,97	1501,16
811,16	1519,59
811,34	1591,27
811,53	1550,31
811,71	1515,50
811,89	1517,54
812,08	1607,66
812,26	1488,87
812,45	1542,12
812,63	1523,69
812,82	1554,41
813,00	1464,30
813,19	1542,12
813,37	1517,54
813,55	1447,91
813,74	1478,63
813,92	1685,48
814,11	1521,64
814,29	1409,00
814,48	1648,61
814,66	1619,94
814,84	1605,61
815,03	1503,21
815,21	1527,78
815,40	1544,17
815,58	1615,85
815,77	1595,37
815,95	1535,98
816,13	1552,36
816,32	1650,66
816,50	1603,56
816,69	1583,08
816,87	1538,02
817,05	1517,54
817,24	1648,61
817,42	1484,78
817,61	1546,22
817,79	1568,74
817,97	1542,12
818,16	1566,70
818,34	1660,90
818,53	1527,78
818,71	1583,08
818,89	1447,91
819,08	1480,68
819,26	1556,46
819,45	1470,44
819,63	1607,66
819,81	1615,85
820,00	1701,86
820,18	1521,64
820,36	1658,85
820,55	1560,55
820,73	1386,47
820,92	1523,69
821,10	1517,54
821,28	1519,59
821,47	1484,78
821,65	1589,22
821,83	1703,91
822,02	1556,46
822,20	1533,93
822,39	1517,54
822,57	1503,21
822,75	1490,92
822,94	1527,78
823,12	1542,12
823,30	1511,40
823,49	1654,76
823,67	1470,44
823,85	1578,98
824,04	1527,78
824,22	1540,07
824,40	1669,09
824,59	1589,22
824,77	1597,42
824,95	1609,70
825,14	1562,60
825,32	1640,42
825,50	1509,35
825,69	1517,54
825,87	1550,31
826,05	1595,37
826,24	1554,41
826,42	1597,42
826,60	1630,18
826,79	1521,64
826,97	1507,30
827,15	1519,59
827,34	1511,40
827,52	1513,45
827,70	1562,60
827,89	1486,83
828,07	1566,70
828,25	1576,94
828,44	1607,66
828,62	1490,92
828,80	1615,85
828,98	1677,29
829,17	1452,01
829,35	1613,80
829,53	1554,41
829,72	1601,51
829,90	1548,26
830,08	1583,08
830,27	1628,14
830,45	1603,56
830,63	1583,08
830,81	1497,07
831,00	1527,78
831,18	1499,11
831,36	1568,74
831,55	1578,98
831,73	1476,59
831,91	1519,59
832,09	1611,75
832,28	1615,85
832,46	1501,16
832,64	1478,63
832,82	1525,74
833,01	1548,26
833,19	1613,80
833,37	1478,63
833,55	1523,69
833,74	1593,32
833,92	1470,44
834,10	1507,30
834,29	1560,55
834,47	1474,54
834,65	1533,93
834,83	1490,92
835,02	1554,41
835,20	1468,39
835,38	1558,50
835,56	1589,22
835,75	1587,18
835,93	1605,61
836,11	1437,67
836,29	1501,16
836,47	1632,23
836,66	1607,66
836,84	1585,13
837,02	1476,59
837,20	1538,02
837,39	1611,75
837,57	1515,50
837,75	1501,16
837,93	1566,70
838,12	1482,73
838,30	1497,07
838,48	1583,08
838,66	1583,08
838,84	1546,22
839,03	1609,70
839,21	1505,26
839,39	1509,35
839,57	1636,33
839,75	1640,42
839,94	1480,68
840,12	1503,21
840,30	1529,83
840,48	1535,98
840,66	1488,87
840,85	1484,78
841,03	1531,88
841,21	1601,51
841,39	1533,93
841,57	1482,73
841,76	1574,89
841,94	1681,38
842,12	1480,68
842,30	1581,03
842,48	1505,26
842,67	1544,17
842,85	1562,60
843,03	1583,08
843,21	1585,13
843,39	1617,90
843,57	1503,21
843,76	1550,31
843,94	1519,59
844,12	1542,12
844,30	1492,97
844,48	1527,78
844,66	1656,81
844,85	1597,42
845,03	1519,59
845,21	1517,54
845,39	1548,26
845,57	1474,54
845,75	1509,35
845,94	1529,83
846,12	1499,11
846,30	1603,56
846,48	1529,83
846,66	1621,99
846,84	1548,26
847,02	1581,03
847,21	1562,60
847,39	1566,70
847,57	1527,78
847,75	1468,39
847,93	1542,12
848,11	1572,84
848,29	1548,26
848,48	1556,46
848,66	1466,35
848,84	1597,42
849,02	1546,22
849,20	1501,16
849,38	1576,94
849,56	1587,18
849,74	1560,55
849,93	1634,28
850,11	1456,11
850,29	1542,12
850,47	1576,94
850,65	1562,60
850,83	1546,22
851,01	1548,26
851,19	1585,13
851,37	1490,92
851,56	1525,74
851,74	1495,02
851,92	1431,53
852,10	1558,50
852,28	1554,41
852,46	1548,26
852,64	1605,61
852,82	1581,03
853,00	1609,70
853,18	1515,50
853,37	1540,07
853,55	1511,40
853,73	1640,42
853,91	1503,21
854,09	1452,01
854,27	1480,68
854,45	1538,02
854,63	1497,07
854,81	1478,63
854,99	1488,87
855,17	1513,45
855,35	1552,36
855,53	1607,66
855,72	1484,78
855,90	1533,93
856,08	1570,79
856,26	1439,72
856,44	1671,14
856,62	1452,01
856,80	1507,30
856,98	1527,78
857,16	1550,31
857,34	1535,98
857,52	1583,08
857,70	1636,33
857,88	1538,02
858,06	1572,84
858,24	1503,21
858,42	1558,50
858,60	1542,12
858,78	1529,83
858,96	1478,63
859,15	1546,22
859,33	1544,17
859,51	1601,51
859,69	1548,26
859,87	1521,64
860,05	1523,69
860,23	1544,17
860,41	1523,69
860,59	1581,03
860,77	1535,98
860,95	1521,64
861,13	1517,54
861,31	1437,67
861,49	1476,59
861,67	1531,88
861,85	1576,94
862,03	1646,57
862,21	1511,40
862,39	1548,26
862,57	1550,31
862,75	1464,30
862,93	1523,69
863,11	1607,66
863,29	1476,59
863,47	1499,11
863,65	1581,03
863,83	1445,87
864,01	1564,65
864,19	1445,87
864,37	1486,83
864,55	1636,33
864,73	1556,46
864,91	1550,31
865,09	1554,41
865,27	1492,97
865,45	1501,16
865,63	1525,74
865,81	1470,44
865,99	1525,74
866,17	1574,89
866,35	1558,50
866,53	1601,51
866,71	1484,78
866,89	1542,12
867,07	1546,22
867,24	1542,12
867,42	1593,32
867,60	1589,22
867,78	1509,35
867,96	1505,26
868,14	1589,22
868,32	1656,81
868,50	1587,18
868,68	1542,12
868,86	1550,31
869,04	1507,30
869,22	1503,21
869,40	1486,83
869,58	1462,25
869,76	1544,17
869,94	1437,67
870,12	1507,30
870,30	1570,79
870,48	1521,64
870,66	1546,22
870,83	1474,54
871,01	1566,70
871,19	1437,67
871,37	1550,31
871,55	1505,26
871,73	1515,50
871,91	1605,61
872,09	1593,32
872,27	1556,46
872,45	1523,69
872,63	1472,49
872,81	1486,83
872,98	1578,98
873,16	1671,14
873,34	1581,03
873,52	1601,51
873,70	1535,98
873,88	1540,07
874,06	1443,82
874,24	1540,07
874,42	1353,71
874,60	1454,06
874,78	1497,07
874,95	1587,18
875,13	1521,64
875,31	1531,88
875,49	1552,36
875,67	1462,25
875,85	1538,02
876,03	1492,97
876,21	1562,60
876,39	1460,20
876,56	1550,31
876,74	1499,11
876,92	1558,50
877,10	1562,60
877,28	1507,30
877,46	1552,36
877,64	1568,74
877,82	1550,31
877,99	1558,50
878,17	1505,26
878,35	1495,02
878,53	1529,83
878,71	1613,80
878,89	1564,65
879,07	1607,66
879,24	1531,88
879,42	1554,41
879,60	1527,78
879,78	1574,89
879,96	1546,22
880,14	1570,79
880,32	1447,91
880,49	1468,39
880,67	1570,79
880,85	1597,42
881,03	1492,97
881,21	1646,57
881,39	1570,79
881,56	1554,41
881,74	1562,60
881,92	1517,54
882,10	1517,54
882,28	1449,96
882,46	1626,09
882,63	1556,46
882,81	1411,05
882,99	1456,11
883,17	1560,55
883,35	1646,57
883,52	1581,03
883,70	1513,45
883,88	1456,11
884,06	1525,74
884,24	1578,98
884,42	1652,71
884,59	1568,74
884,77	1626,09
884,95	1593,32
885,13	1525,74
885,31	1535,98
885,48	1560,55
885,66	1546,22
885,84	1593,32
886,02	1505,26
886,20	1634,28
886,37	1597,42
886,55	1581,03
886,73	1644,52
886,91	1517,54
887,08	1574,89
887,26	1585,13
887,44	1609,70
887,62	1466,35
887,80	1568,74
887,97	1597,42
888,15	1556,46
888,33	1513,45
888,51	1550,31
888,68	1554,41
888,86	1570,79
889,04	1515,50
889,22	1669,09
889,40	1523,69
889,57	1503,21
889,75	1640,42
889,93	1574,89
890,11	1572,84
890,28	1593,32
890,46	1574,89
890,64	1486,83
890,82	1517,54
890,99	1554,41
891,17	1470,44
891,35	1454,06
891,53	1490,92
891,70	1511,40
891,88	1521,64
892,06	1535,98
892,24	1517,54
892,41	1513,45
892,59	1535,98
892,77	1460,20
892,94	1621,99
893,12	1599,46
893,30	1441,77
893,48	1499,11
893,65	1595,37
893,83	1531,88
894,01	1517,54
894,19	1525,74
894,36	1693,67
894,54	1447,91
894,72	1499,11
894,89	1474,54
895,07	1464,30
895,25	1576,94
895,43	1449,96
895,60	1621,99
895,78	1626,09
895,96	1535,98
896,13	1644,52
896,31	1570,79
896,49	1550,31
896,66	1499,11
896,84	1685,48
897,02	1595,37
897,20	1564,65
897,37	1492,97
897,55	1474,54
897,73	1511,40
897,90	1607,66
898,08	1581,03
898,26	1624,04
898,43	1585,13
898,61	1619,94
898,79	1449,96
898,96	1574,89
899,14	1499,11
899,32	1517,54
899,49	1570,79
899,67	1501,16
899,85	1630,18
900,02	1619,94
900,20	1552,36
900,38	1607,66
900,55	1583,08
900,73	1642,47
900,91	1482,73
901,08	1644,52
901,26	1560,55
901,44	1513,45
901,61	1576,94
901,79	1613,80
901,97	1615,85
902,14	1478,63
902,32	1583,08
902,50	1490,92
902,67	1525,74
902,85	1570,79
903,02	1540,07
903,20	1519,59
903,38	1445,87
903,55	1456,11
903,73	1480,68
903,91	1474,54
904,08	1558,50
904,26	1497,07
904,44	1638,38
904,61	1427,43
904,79	1542,12
904,96	1548,26
905,14	1538,02
905,32	1589,22
905,49	1505,26
905,67	1490,92
905,84	1501,16
906,02	1521,64
906,20	1595,37
906,37	1771,49
906,55	1523,69
906,73	1578,98
906,90	1566,70
907,08	1550,31
907,25	1517,54
907,43	1568,74
907,61	1425,39
907,78	1574,89
907,96	1466,35
908,13	1568,74
908,31	1615,85
908,48	1509,35
908,66	1540,07
908,84	1533,93
909,01	1552,36
909,19	1583,08
909,36	1529,83
909,54	1439,72
909,72	1497,07
909,89	1482,73
910,07	1464,30
910,24	1572,84
910,42	1609,70
910,59	1484,78
910,77	1560,55
910,95	1511,40
911,12	1572,84
911,30	1552,36
911,47	1581,03
911,65	1521,64
911,82	1550,31
912,00	1626,09
912,17	1464,30
912,35	1476,59
912,53	1611,75
912,70	1613,80
912,88	1550,31
913,05	1538,02
913,23	1531,88
913,40	1615,85
913,58	1517,54
913,75	1576,94
913,93	1515,50
914,10	1570,79
914,28	1529,83
914,46	1495,02
914,63	1533,93
914,81	1560,55
914,98	1421,29
915,16	1544,17
915,33	1497,07
915,51	1527,78
915,68	1560,55
915,86	1593,32
916,03	1529,83
916,21	1538,02
916,38	1542,12
916,56	1560,55
916,73	1630,18
916,91	1509,35
917,08	1515,50
917,26	1552,36
917,43	1583,08
917,61	1474,54
917,78	1570,79
917,96	1527,78
918,13	1462,25
918,31	1564,65
918,48	1505,26
918,66	1484,78
918,83	1599,46
919,01	1566,70
919,18	1513,45
919,36	1447,91
919,53	1628,14
919,71	1617,90
919,88	1593,32
920,06	1458,15
920,23	1492,97
920,41	1519,59
920,58	1503,21
920,76	1490,92
920,93	1576,94
921,11	1464,30
921,28	1531,88
921,45	1615,85
921,63	1585,13
921,80	1583,08
921,98	1562,60
922,15	1564,65
922,33	1499,11
922,50	1560,55
922,68	1544,17
922,85	1515,50
923,03	1572,84
923,20	1621,99
923,38	1587,18
923,55	1581,03
923,72	1513,45
923,90	1724,39
924,07	1488,87
924,25	1517,54
924,42	1634,28
924,60	1476,59
924,77	1538,02
924,95	1585,13
925,12	1615,85
925,29	1710,05
925,47	1578,98
925,64	1480,68
925,82	1507,30
925,99	1454,06
926,17	1550,31
926,34	1542,12
926,51	1519,59
926,69	1566,70
926,86	1572,84
927,04	1564,65
927,21	1531,88
927,38	1490,92
927,56	1595,37
927,73	1578,98
927,91	1533,93
928,08	1693,67
928,25	1519,59
928,43	1533,93
928,60	1464,30
928,78	1546,22
928,95	1505,26
929,12	1574,89
929,30	1447,91
929,47	1529,83
929,65	1488,87
929,82	1523,69
929,99	1538,02
930,17	1435,63
930,34	1585,13
930,52	1581,03
930,69	1507,30
930,86	1527,78
931,04	1521,64
931,21	1556,46
931,38	1511,40
931,56	1529,83
931,73	1683,43
931,91	1583,08
932,08	1505,26
932,25	1660,90
932,43	1533,93
932,60	1558,50
932,77	1531,88
932,95	1550,31
933,12	1581,03
933,29	1548,26
933,47	1658,85
933,64	1517,54
933,82	1519,59
933,99	1589,22
934,16	1585,13
934,34	1519,59
934,51	1417,19
934,68	1585,13
934,86	1581,03
935,03	1482,73
935,20	1568,74
935,38	1466,35
935,55	1511,40
935,72	1517,54
935,90	1583,08
936,07	1507,30
936,24	1441,77
936,42	1630,18
936,59	1509,35
936,76	1624,04
936,94	1427,43
937,11	1583,08
937,28	1523,69
937,46	1566,70
937,63	1542,12
937,80	1546,22
937,97	1654,76
938,15	1583,08
938,32	1615,85
938,49	1609,70
938,67	1482,73
938,84	1603,56
939,01	1484,78
939,19	1531,88
939,36	1538,02
939,53	1548,26
939,70	1517,54
939,88	1556,46
940,05	1624,04
940,22	1597,42
940,40	1609,70
940,57	1621,99
940,74	1499,11
940,92	1509,35
941,09	1533,93
941,26	1503,21
941,43	1513,45
941,61	1443,82
941,78	1531,88
941,95	1583,08
942,12	1544,17
942,30	1552,36
942,47	1613,80
942,64	1490,92
942,82	1648,61
942,99	1689,57
943,16	1490,92
943,33	1517,54
943,51	1456,11
943,68	1552,36
943,85	1568,74
944,02	1548,26
944,20	1615,85
944,37	1531,88
944,54	1566,70
944,71	1529,83
944,89	1578,98
945,06	1497,07
945,23	1585,13
945,40	1607,66
945,58	1574,89
945,75	1531,88
945,92	1675,24
946,09	1613,80
946,27	1540,07
946,44	1505,26
946,61	1572,84
946,78	1540,07
946,95	1521,64
947,13	1552,36
947,30	1515,50
947,47	1501,16
947,64	1503,21
947,82	1535,98
947,99	1492,97
948,16	1572,84
948,33	1546,22
948,50	1511,40
948,68	1583,08
948,85	1538,02
949,02	1554,41
949,19	1472,49
949,36	1468,39
949,54	1568,74
949,71	1574,89
949,88	1531,88
950,05	1587,18
950,22	1548,26
950,40	1503,21
950,57	1525,74
950,74	1654,76
950,91	1611,75
951,08	1515,50
951,26	1576,94
951,43	1495,02
951,60	1501,16
951,77	1589,22
951,94	1642,47
952,11	1576,94
952,29	1587,18
952,46	1556,46
952,63	1667,05
952,80	1480,68
952,97	1644,52
953,15	1630,18
953,32	1560,55
953,49	1474,54
953,66	1527,78
953,83	1470,44
954,00	1474,54
954,17	1552,36
954,35	1646,57
954,52	1478,63
954,69	1613,80
954,86	1607,66
955,03	1552,36
955,20	1515,50
955,38	1507,30
955,55	1527,78
955,72	1626,09
955,89	1525,74
956,06	1554,41
956,23	1501,16
956,40	1505,26
956,58	1468,39
956,75	1447,91
956,92	1482,73
957,09	1460,20
957,26	1562,60
957,43	1560,55
957,60	1515,50
957,77	1515,50
957,95	1523,69
958,12	1533,93
958,29	1570,79
958,46	1613,80
958,63	1490,92
958,80	1570,79
958,97	1621,99
959,14	1568,74
959,31	1492,97
959,49	1499,11
959,66	1466,35
959,83	1505,26
960,00	1492,97
960,17	1607,66
960,34	1591,27
960,51	1468,39
960,68	1554,41
960,85	1587,18
961,02	1519,59
961,20	1605,61
961,37	1564,65
961,54	1556,46
961,71	1554,41
961,88	1564,65
962,05	1484,78
962,22	1613,80
962,39	1568,74
962,56	1570,79
962,73	1472,49
962,90	1495,02
963,07	1509,35
963,24	1521,64
963,42	1546,22
963,59	1560,55
963,76	1550,31
963,93	1613,80
964,10	1466,35
964,27	1472,49
964,44	1632,23
964,61	1632,23
964,78	1486,83
964,95	1499,11
965,12	1474,54
965,29	1523,69
965,46	1576,94
965,63	1544,17
965,80	1544,17
965,97	1482,73
966,14	1550,31
966,31	1542,12
966,48	1597,42
966,66	1673,19
966,83	1583,08
967,00	1538,02
967,17	1544,17
967,34	1533,93
967,51	1601,51
967,68	1578,98
967,85	1452,01
968,02	1593,32
968,19	1472,49
968,36	1624,04
968,53	1538,02
968,70	1554,41
968,87	1589,22
969,04	1546,22
969,21	1460,20
969,38	1687,53
969,55	1482,73
969,72	1640,42
969,89	1644,52
970,06	1501,16
970,23	1562,60
970,40	1597,42
970,57	1533,93
970,74	1560,55
970,91	1531,88
971,08	1529,83
971,25	1503,21
971,42	1621,99
971,59	1535,98
971,76	1521,64
971,93	1585,13
972,10	1490,92
972,27	1533,93
972,44	1542,12
972,61	1554,41
972,78	1562,60
972,95	1558,50
973,12	1658,85
973,29	1550,31
973,46	1538,02
973,63	1552,36
973,80	1648,61
973,97	1535,98
974,14	1558,50
974,30	1542,12
974,47	1576,94
974,64	1556,46
974,81	1552,36
974,98	1611,75
975,15	1542,12
975,32	1564,65
975,49	1523,69
975,66	1523,69
975,83	1636,33
976,00	1576,94
976,17	1589,22
976,34	1470,44
976,51	1531,88
976,68	1482,73
976,85	1540,07
977,02	1574,89
977,19	1550,31
977,36	1511,40
977,52	1601,51
977,69	1525,74
977,86	1636,33
978,03	1540,07
978,20	1564,65
978,37	1468,39
978,54	1595,37
978,71	1662,95
978,88	1685,48
979,05	1458,15
979,22	1542,12
979,39	1593,32
979,56	1595,37
979,72	1464,30
979,89	1634,28
980,06	1648,61
980,23	1658,85
980,40	1472,49
980,57	1597,42
980,74	1529,83
980,91	1529,83
981,08	1560,55
981,25	1558,50
981,41	1486,83
981,58	1495,02
981,75	1480,68
981,92	1624,04
982,09	1550,31
982,26	1538,02
982,43	1454,06
982,60	1699,81
982,77	1558,50
982,93	1482,73
983,10	1562,60
983,27	1484,78
983,44	1558,50
983,61	1679,33
983,78	1585,13
983,95	1492,97
984,11	1503,21
984,28	1615,85
984,45	1515,50
984,62	1564,65
984,79	1478,63
984,96	1576,94
985,13	1548,26
985,30	1589,22
985,46	1474,54
985,63	1499,11
985,80	1613,80
985,97	1456,11
986,14	1468,39
986,31	1581,03
986,47	1468,39
986,64	1488,87
986,81	1495,02
986,98	1574,89
987,15	1501,16
987,32	1566,70
987,48	1593,32
987,65	1630,18
987,82	1482,73
987,99	1611,75
988,16	1814,50
988,33	1689,57
988,49	1538,02
988,66	1560,55
988,83	1443,82
989,00	1572,84
989,17	1439,72
989,34	1556,46
989,50	1548,26
989,67	1527,78
989,84	1501,16
990,01	1529,83
990,18	1665,00
990,34	1527,78
990,51	1503,21
990,68	1552,36
990,85	1611,75
991,02	1501,16
991,18	1507,30
991,35	1570,79
991,52	1593,32
991,69	1476,59
991,86	1546,22
992,02	1507,30
992,19	1458,15
992,36	1556,46
992,53	1589,22
992,69	1523,69
992,86	1452,01
993,03	1640,42
993,20	1476,59
993,37	1548,26
993,53	1609,70
993,70	1564,65
993,87	1513,45
994,04	1558,50
994,20	1470,44
994,37	1546,22
994,54	1513,45
994,71	1497,07
994,87	1583,08
995,04	1529,83
995,21	1591,27
995,38	1515,50
995,55	1486,83
995,71	1546,22
995,88	1581,03
996,05	1648,61
996,22	1628,14
996,38	1535,98
996,55	1456,11
996,72	1490,92
996,88	1642,47
997,05	2424,80
997,22	1478,63
997,39	1474,54
997,55	1558,50
997,72	1511,40
997,89	1490,92
998,06	1607,66
998,22	1542,12
998,39	1507,30
998,56	1437,67
998,73	1484,78
998,89	1476,59
999,06	1544,17
999,23	1566,70
999,39	1527,78
999,56	1673,19
999,73	1593,32
999,90	1495,02
1000,06	1589,22
1000,23	1490,92
1000,40	1615,85
1000,56	1574,89
1000,73	1503,21
1000,90	1599,46
1001,06	1554,41
1001,23	1425,39
1001,40	1597,42
1001,57	1509,35
1001,73	1603,56
1001,90	1554,41
1002,07	1476,59
1002,23	1636,33
1002,40	1560,55
1002,57	1521,64
1002,73	1484,78
1002,90	1466,35
1003,07	1507,30
1003,23	1486,83
1003,40	1517,54
1003,57	1503,21
1003,73	1531,88
1003,90	1619,94
1004,07	1454,06
1004,23	1576,94
1004,40	1523,69
1004,57	1607,66
1004,73	1535,98
1004,90	1566,70
1005,07	1630,18
1005,23	1521,64
1005,40	1531,88
1005,57	1601,51
1005,73	1593,32
1005,90	1511,40
1006,07	1589,22
1006,23	1538,02
1006,40	1593,32
1006,57	1521,64
1006,73	1548,26
1006,90	1546,22
1007,06	1564,65
1007,23	1480,68
1007,40	1529,83
1007,56	1548,26
1007,73	1554,41
1007,90	1527,78
1008,06	1533,93
1008,23	1515,50
1008,40	1619,94
1008,56	1460,20
1008,73	1492,97
1008,89	1589,22
1009,06	1656,81
1009,23	1554,41
1009,39	1564,65
1009,56	1421,29
1009,72	1505,26
1009,89	1558,50
1010,06	1482,73
1010,22	1523,69
1010,39	1505,26
1010,55	1437,67
1010,72	1513,45
1010,89	1570,79
1011,05	1589,22
1011,22	1513,45
1011,38	1632,23
1011,55	1546,22
1011,72	1505,26
1011,88	1583,08
1012,05	1568,74
1012,21	1525,74
1012,38	1542,12
1012,55	1554,41
1012,71	1460,20
1012,88	1562,60
1013,04	1624,04
1013,21	1535,98
1013,37	1615,85
1013,54	1552,36
1013,71	1621,99
1013,87	1591,27
1014,04	1581,03
1014,20	1710,05
1014,37	1564,65
1014,53	1505,26
1014,70	1501,16
1014,87	1562,60
1015,03	1630,18
1015,20	1513,45
1015,36	1599,46
1015,53	1458,15
1015,69	1509,35
1015,86	1548,26
1016,02	1607,66
1016,19	1581,03
1016,36	1519,59
1016,52	1560,55
1016,69	1638,38
1016,85	1521,64
1017,02	1621,99
1017,18	1576,94
1017,35	1574,89
1017,51	1490,92
1017,68	1581,03
1017,84	1482,73
1018,01	1441,77
1018,17	1564,65
1018,34	1665,00
1018,50	1525,74
1018,67	1480,68
1018,84	1560,55
1019,00	1515,50
1019,17	1574,89
1019,33	1597,42
1019,50	1574,89
1019,66	1552,36
1019,83	1484,78
1019,99	1546,22
1020,16	1470,44
1020,32	1501,16
1020,49	1609,70
1020,65	1572,84
1020,82	1572,84
1020,98	1583,08
1021,15	1581,03
1021,31	1593,32
1021,48	1568,74
1021,64	1556,46
1021,81	1556,46
1021,97	1540,07
1022,14	1556,46
1022,30	1474,54
1022,47	1535,98
1022,63	1566,70
1022,79	1593,32
1022,96	1492,97
1023,12	1535,98
1023,29	1513,45
1023,45	1648,61
1023,62	1550,31
1023,78	1566,70
1023,95	1552,36
1024,11	1521,64
1024,28	1509,35
1024,44	1578,98
1024,61	1478,63
1024,77	1548,26
1024,94	1546,22
1025,10	1548,26
1025,26	1470,44
1025,43	1497,07
1025,59	1535,98
1025,76	1519,59
1025,92	1595,37
1026,09	1521,64
1026,25	1714,15
1026,42	1474,54
1026,58	1560,55
1026,74	1671,14
1026,91	1589,22
1027,07	1499,11
1027,24	1601,51
1027,40	1583,08
1027,57	1581,03
1027,73	1517,54
1027,90	1613,80
1028,06	1523,69
1028,22	1560,55
1028,39	1540,07
1028,55	1576,94
1028,72	1540,07
1028,88	1648,61
1029,04	1566,70
1029,21	1576,94
1029,37	1490,92
1029,54	1454,06
1029,70	1544,17
1029,87	1542,12
1030,03	1515,50
1030,19	1636,33
1030,36	1562,60
1030,52	1527,78
1030,69	1452,01
1030,85	1423,34
1031,01	1591,27
1031,18	1611,75
1031,34	1585,13
1031,50	1550,31
1031,67	1589,22
1031,83	1589,22
1032,00	1501,16
1032,16	1568,74
1032,32	1566,70
1032,49	1538,02
1032,65	1589,22
1032,82	1597,42
1032,98	1509,35
1033,14	1482,73
1033,31	1542,12
1033,47	1652,71
1033,63	1531,88
1033,80	1568,74
1033,96	1527,78
1034,13	1570,79
1034,29	1527,78
1034,45	1533,93
1034,62	1515,50
1034,78	1634,28
1034,94	1441,77
1035,11	1552,36
1035,27	1449,96
1035,43	1611,75
1035,60	1558,50
1035,76	1521,64
1035,92	1535,98
1036,09	1544,17
1036,25	1519,59
1036,41	1560,55
1036,58	1572,84
1036,74	1591,27
1036,90	1441,77
1037,07	1482,73
1037,23	1492,97
1037,39	1615,85
1037,56	1517,54
1037,72	1583,08
1037,88	1613,80
1038,05	1566,70
1038,21	1540,07
1038,37	1583,08
1038,54	1638,38
1038,70	1589,22
1038,86	1560,55
1039,03	1636,33
1039,19	1517,54
1039,35	1484,78
1039,52	1470,44
1039,68	1472,49
1039,84	1478,63
1040,00	1628,14
1040,17	1433,58
1040,33	1548,26
1040,49	1566,70
1040,66	1583,08
1040,82	1511,40
1040,98	1597,42
1041,15	1552,36
1041,31	1529,83
1041,47	1572,84
1041,63	1425,39
1041,80	1587,18
1041,96	1658,85
1042,12	1443,82
1042,29	1578,98
1042,45	1581,03
1042,61	1529,83
1042,77	1542,12
1042,94	1542,12
1043,10	1660,90
1043,26	1591,27
1043,42	1628,14
1043,59	1572,84
1043,75	1599,46
1043,91	1566,70
1044,07	1499,11
1044,24	1527,78
1044,40	1591,27
>>>>>End Processed Spectral Data<<<<<
