SpectraSuite Data File
++++++++++++++++++++++++++++++++++++
Date: Wed Sep 25 10:31:31 GMT-03:00 2024
User: Lavfis
Dark Spectrum Present: No
Reference Spectrum Present: No
Number of Sampled Component Spectra: 1
Spectrometers: USB4F02573
Integration Time (usec): 100000 (USB4F02573)
Spectra Averaged: 1 (USB4F02573)
Boxcar Smoothing: 0 (USB4F02573)
Correct for Electrical Dark: No (USB4F02573)
Strobe/Lamp Enabled: No (USB4F02573)
Correct for Detector Non-linearity: No (USB4F02573)
Correct for Stray Light: No (USB4F02573)
Number of Pixels in Processed Spectrum: 3648
>>>>>Begin Processed Spectral Data<<<<<
345,22	1361,90
345,44	1361,90
345,66	1361,90
345,88	1302,51
346,10	1423,34
346,32	1497,07
346,54	1587,18
346,75	1542,12
346,97	1492,97
347,19	1540,07
347,41	1578,98
347,63	1527,78
347,85	1501,16
348,07	1564,65
348,29	1681,38
348,51	1552,36
348,73	1574,89
348,95	1425,39
349,16	1529,83
349,38	1523,69
349,60	1609,70
349,82	1482,73
350,04	1564,65
350,26	1615,85
350,48	1626,09
350,70	1617,90
350,92	1535,98
351,14	1597,42
351,35	1535,98
351,57	1542,12
351,79	1511,40
352,01	1521,64
352,23	1511,40
352,45	1507,30
352,67	1525,74
352,89	1572,84
353,10	1548,26
353,32	1505,26
353,54	1538,02
353,76	1624,04
353,98	1652,71
354,20	1613,80
354,42	1501,16
354,64	1509,35
354,85	1621,99
355,07	1517,54
355,29	1581,03
355,51	1503,21
355,73	1650,66
355,95	1535,98
356,17	1583,08
356,38	1556,46
356,60	1634,28
356,82	1570,79
357,04	1550,31
357,26	1583,08
357,48	1540,07
357,69	1572,84
357,91	1472,49
358,13	1581,03
358,35	1570,79
358,57	1593,32
358,79	1527,78
359,01	1564,65
359,22	1585,13
359,44	1581,03
359,66	1576,94
359,88	1599,46
360,10	1621,99
360,32	1542,12
360,53	1507,30
360,75	1552,36
360,97	1611,75
361,19	1585,13
361,41	1621,99
361,62	1572,84
361,84	1581,03
362,06	1429,48
362,28	1515,50
362,50	1671,14
362,72	1605,61
362,93	1499,11
363,15	1429,48
363,37	1525,74
363,59	1597,42
363,81	1564,65
364,02	1673,19
364,24	1548,26
364,46	1605,61
364,68	1476,59
364,90	1671,14
365,11	1542,12
365,33	1609,70
365,55	1486,83
365,77	1515,50
365,99	1495,02
366,20	1658,85
366,42	1495,02
366,64	1499,11
366,86	1482,73
367,07	1630,18
367,29	1470,44
367,51	1548,26
367,73	1501,16
367,95	1656,81
368,16	1607,66
368,38	1621,99
368,60	1548,26
368,82	1566,70
369,03	1654,76
369,25	1626,09
369,47	1552,36
369,69	1501,16
369,91	1562,60
370,12	1560,55
370,34	1509,35
370,56	1544,17
370,78	1531,88
370,99	1576,94
371,21	1566,70
371,43	1484,78
371,65	1550,31
371,86	1550,31
372,08	1652,71
372,30	1568,74
372,52	1525,74
372,73	1501,16
372,95	1617,90
373,17	1552,36
373,39	1511,40
373,60	1552,36
373,82	1628,14
374,04	1501,16
374,26	1621,99
374,47	1597,42
374,69	1511,40
374,91	1593,32
375,12	1619,94
375,34	1513,45
375,56	1511,40
375,78	1568,74
375,99	1525,74
376,21	1675,24
376,43	1562,60
376,65	1562,60
376,86	1535,98
377,08	1556,46
377,30	1630,18
377,51	1562,60
377,73	1478,63
377,95	1490,92
378,17	1611,75
378,38	1601,51
378,60	1585,13
378,82	1658,85
379,03	1652,71
379,25	1581,03
379,47	1640,42
379,68	1484,78
379,90	1476,59
380,12	1544,17
380,34	1433,58
380,55	1562,60
380,77	1597,42
380,99	1511,40
381,20	1574,89
381,42	1523,69
381,64	1472,49
381,85	1488,87
382,07	1572,84
382,29	1558,50
382,50	1609,70
382,72	1521,64
382,94	1519,59
383,15	1531,88
383,37	1546,22
383,59	1574,89
383,80	1454,06
384,02	1607,66
384,24	1525,74
384,45	1632,23
384,67	1572,84
384,89	1484,78
385,10	1501,16
385,32	1570,79
385,54	1458,15
385,75	1509,35
385,97	1697,77
386,19	1636,33
386,40	1603,56
386,62	1540,07
386,84	1587,18
387,05	1542,12
387,27	1449,96
387,49	1490,92
387,70	1560,55
387,92	1589,22
388,14	1468,39
388,35	1591,27
388,57	1505,26
388,79	1628,14
389,00	1550,31
389,22	1513,45
389,43	1548,26
389,65	1566,70
389,87	1576,94
390,08	1480,68
390,30	1660,90
390,52	1632,23
390,73	1576,94
390,95	1529,83
391,17	1523,69
391,38	1488,87
391,60	1675,24
391,81	1572,84
392,03	1527,78
392,25	1503,21
392,46	1456,11
392,68	1621,99
392,89	1527,78
393,11	1447,91
393,33	1587,18
393,54	1634,28
393,76	1566,70
393,98	1601,51
394,19	1499,11
394,41	1476,59
394,62	1458,15
394,84	1613,80
395,06	1540,07
395,27	1507,30
395,49	1472,49
395,70	1605,61
395,92	1511,40
396,13	1507,30
396,35	1574,89
396,57	1562,60
396,78	1497,07
397,00	1542,12
397,21	1636,33
397,43	1626,09
397,65	1585,13
397,86	1562,60
398,08	1495,02
398,29	1621,99
398,51	1476,59
398,72	1552,36
398,94	1638,38
399,16	1556,46
399,37	1589,22
399,59	1642,47
399,80	1572,84
400,02	1531,88
400,23	1599,46
400,45	1556,46
400,67	1624,04
400,88	1607,66
401,10	1533,93
401,31	1542,12
401,53	1466,35
401,74	1585,13
401,96	1578,98
402,17	1472,49
402,39	1503,21
402,61	1552,36
402,82	1566,70
403,04	1538,02
403,25	1538,02
403,47	1611,75
403,68	1517,54
403,90	1652,71
404,11	1521,64
404,33	1462,25
404,54	1564,65
404,76	1605,61
404,97	1544,17
405,19	1634,28
405,41	1628,14
405,62	1652,71
405,84	1462,25
406,05	1599,46
406,27	1492,97
406,48	1593,32
406,70	1544,17
406,91	1607,66
407,13	1495,02
407,34	1486,83
407,56	1671,14
407,77	1495,02
407,99	1525,74
408,20	1660,90
408,42	1492,97
408,63	1601,51
408,85	1525,74
409,06	1595,37
409,28	1658,85
409,49	1527,78
409,71	1515,50
409,92	1533,93
410,14	1523,69
410,35	1728,49
410,57	1564,65
410,78	1437,67
411,00	1585,13
411,21	1576,94
411,43	1558,50
411,64	1589,22
411,86	1527,78
412,07	1658,85
412,29	1572,84
412,50	1476,59
412,72	1632,23
412,93	1640,42
413,15	1611,75
413,36	1531,88
413,58	1662,95
413,79	1468,39
414,01	1570,79
414,22	1574,89
414,43	1632,23
414,65	1546,22
414,86	1535,98
415,08	1615,85
415,29	1597,42
415,51	1531,88
415,72	1550,31
415,94	1503,21
416,15	1667,05
416,37	1665,00
416,58	1501,16
416,80	1593,32
417,01	1552,36
417,22	1560,55
417,44	1589,22
417,65	1597,42
417,87	1570,79
418,08	1695,72
418,30	1583,08
418,51	1671,14
418,73	1554,41
418,94	1495,02
419,15	1585,13
419,37	1613,80
419,58	1488,87
419,80	1538,02
420,01	1677,29
420,23	1607,66
420,44	1589,22
420,65	1597,42
420,87	1581,03
421,08	1578,98
421,30	1597,42
421,51	1556,46
421,73	1507,30
421,94	1503,21
422,15	1546,22
422,37	1572,84
422,58	1492,97
422,80	1476,59
423,01	1560,55
423,22	1535,98
423,44	1490,92
423,65	1484,78
423,87	1441,77
424,08	1617,90
424,29	1509,35
424,51	1595,37
424,72	1611,75
424,94	1449,96
425,15	1533,93
425,36	1560,55
425,58	1533,93
425,79	1632,23
426,01	1595,37
426,22	1550,31
426,43	1630,18
426,65	1466,35
426,86	1560,55
427,08	1576,94
427,29	1486,83
427,50	1501,16
427,72	1564,65
427,93	1574,89
428,14	1535,98
428,36	1556,46
428,57	1515,50
428,79	1568,74
429,00	1621,99
429,21	1601,51
429,43	1587,18
429,64	1533,93
429,85	1574,89
430,07	1607,66
430,28	1466,35
430,49	1499,11
430,71	1523,69
430,92	1540,07
431,14	1562,60
431,35	1574,89
431,56	1619,94
431,78	1552,36
431,99	1587,18
432,20	1591,27
432,42	1566,70
432,63	1558,50
432,84	1513,45
433,06	1554,41
433,27	1585,13
433,48	1574,89
433,70	1583,08
433,91	1585,13
434,12	1503,21
434,34	1601,51
434,55	1564,65
434,76	1550,31
434,98	1562,60
435,19	1511,40
435,40	1460,20
435,62	1499,11
435,83	1648,61
436,04	1593,32
436,26	1583,08
436,47	1464,30
436,68	1476,59
436,90	1454,06
437,11	1497,07
437,32	1480,68
437,54	1558,50
437,75	1517,54
437,96	1558,50
438,17	1570,79
438,39	1550,31
438,60	1554,41
438,81	1548,26
439,03	1632,23
439,24	1484,78
439,45	1607,66
439,67	1533,93
439,88	1646,57
440,09	1568,74
440,30	1595,37
440,52	1564,65
440,73	1564,65
440,94	1492,97
441,16	1445,87
441,37	1581,03
441,58	1554,41
441,80	1552,36
442,01	1566,70
442,22	1572,84
442,43	1613,80
442,65	1648,61
442,86	1560,55
443,07	1548,26
443,28	1529,83
443,50	1562,60
443,71	1589,22
443,92	1525,74
444,14	1515,50
444,35	1509,35
444,56	1505,26
444,77	1509,35
444,99	1535,98
445,20	1542,12
445,41	1550,31
445,62	1576,94
445,84	1583,08
446,05	1525,74
446,26	1621,99
446,47	1570,79
446,69	1564,65
446,90	1447,91
447,11	1558,50
447,32	1478,63
447,54	1546,22
447,75	1554,41
447,96	1585,13
448,17	1529,83
448,39	1480,68
448,60	1482,73
448,81	1617,90
449,02	1613,80
449,23	1548,26
449,45	1601,51
449,66	1591,27
449,87	1581,03
450,08	1476,59
450,30	1511,40
450,51	1472,49
450,72	1535,98
450,93	1519,59
451,15	1605,61
451,36	1527,78
451,57	1587,18
451,78	1570,79
451,99	1609,70
452,21	1486,83
452,42	1578,98
452,63	1550,31
452,84	1478,63
453,05	1531,88
453,27	1507,30
453,48	1671,14
453,69	1531,88
453,90	1619,94
454,11	1554,41
454,33	1566,70
454,54	1546,22
454,75	1556,46
454,96	1533,93
455,17	1562,60
455,39	1638,38
455,60	1566,70
455,81	1531,88
456,02	1519,59
456,23	1576,94
456,45	1570,79
456,66	1558,50
456,87	1482,73
457,08	1630,18
457,29	1646,57
457,50	1454,06
457,72	1581,03
457,93	1521,64
458,14	1597,42
458,35	1542,12
458,56	1632,23
458,77	1445,87
458,99	1564,65
459,20	1611,75
459,41	1480,68
459,62	1585,13
459,83	1538,02
460,04	1495,02
460,26	1581,03
460,47	1538,02
460,68	1472,49
460,89	1546,22
461,10	1638,38
461,31	1540,07
461,52	1476,59
461,74	1632,23
461,95	1529,83
462,16	1515,50
462,37	1568,74
462,58	1601,51
462,79	1589,22
463,00	1521,64
463,22	1665,00
463,43	1550,31
463,64	1499,11
463,85	1624,04
464,06	1593,32
464,27	1544,17
464,48	1572,84
464,70	1531,88
464,91	1617,90
465,12	1480,68
465,33	1554,41
465,54	1693,67
465,75	1581,03
465,96	1587,18
466,17	1542,12
466,38	1632,23
466,60	1511,40
466,81	1523,69
467,02	1591,27
467,23	1595,37
467,44	1611,75
467,65	1570,79
467,86	1640,42
468,07	1495,02
468,28	1609,70
468,50	1574,89
468,71	1658,85
468,92	1595,37
469,13	1568,74
469,34	1525,74
469,55	1634,28
469,76	1525,74
469,97	1607,66
470,18	1562,60
470,39	1593,32
470,60	1603,56
470,82	1542,12
471,03	1495,02
471,24	1576,94
471,45	1478,63
471,66	1595,37
471,87	1486,83
472,08	1441,77
472,29	1611,75
472,50	1484,78
472,71	1458,15
472,92	1613,80
473,13	1511,40
473,34	1527,78
473,55	1566,70
473,77	1509,35
473,98	1576,94
474,19	1628,14
474,40	1505,26
474,61	1515,50
474,82	1531,88
475,03	1660,90
475,24	1437,67
475,45	1556,46
475,66	1621,99
475,87	1632,23
476,08	1517,54
476,29	1570,79
476,50	1591,27
476,71	1570,79
476,92	1525,74
477,13	1611,75
477,34	1546,22
477,55	1578,98
477,76	1515,50
477,97	1525,74
478,18	1511,40
478,40	1544,17
478,61	1552,36
478,82	1525,74
479,03	1540,07
479,24	1626,09
479,45	1544,17
479,66	1644,52
479,87	1654,76
480,08	1490,92
480,29	1597,42
480,50	1515,50
480,71	1552,36
480,92	1560,55
481,13	1468,39
481,34	1527,78
481,55	1492,97
481,76	1523,69
481,97	1595,37
482,18	1599,46
482,39	1474,54
482,60	1581,03
482,81	1492,97
483,02	1581,03
483,23	1570,79
483,44	1609,70
483,65	1578,98
483,86	1556,46
484,07	1660,90
484,28	1601,51
484,49	1591,27
484,70	1566,70
484,91	1519,59
485,12	1556,46
485,33	1503,21
485,54	1607,66
485,75	1505,26
485,96	1640,42
486,17	1441,77
486,38	1488,87
486,59	1581,03
486,80	1609,70
487,01	1445,87
487,21	1507,30
487,42	1505,26
487,63	1671,14
487,84	1531,88
488,05	1533,93
488,26	1703,91
488,47	1529,83
488,68	1480,68
488,89	1646,57
489,10	1581,03
489,31	1540,07
489,52	1550,31
489,73	1550,31
489,94	1638,38
490,15	1599,46
490,36	1611,75
490,57	1599,46
490,78	1519,59
490,99	1581,03
491,20	1503,21
491,41	1603,56
491,61	1724,39
491,82	1550,31
492,03	1599,46
492,24	1581,03
492,45	1515,50
492,66	1566,70
492,87	1531,88
493,08	1542,12
493,29	1474,54
493,50	1570,79
493,71	1589,22
493,92	1554,41
494,13	1595,37
494,34	1431,53
494,54	1587,18
494,75	1570,79
494,96	1572,84
495,17	1572,84
495,38	1486,83
495,59	1478,63
495,80	1540,07
496,01	1591,27
496,22	1585,13
496,43	1495,02
496,64	1554,41
496,84	1488,87
497,05	1609,70
497,26	1648,61
497,47	1556,46
497,68	1566,70
497,89	1564,65
498,10	1583,08
498,31	1607,66
498,52	1599,46
498,72	1619,94
498,93	1540,07
499,14	1509,35
499,35	1468,39
499,56	1529,83
499,77	1568,74
499,98	1624,04
500,19	1642,47
500,40	1535,98
500,60	1402,86
500,81	1632,23
501,02	1560,55
501,23	1578,98
501,44	1550,31
501,65	1597,42
501,86	1556,46
502,06	1501,16
502,27	1564,65
502,48	1570,79
502,69	1556,46
502,90	1705,96
503,11	1529,83
503,32	1589,22
503,53	1505,26
503,73	1556,46
503,94	1529,83
504,15	1628,14
504,36	1560,55
504,57	1499,11
504,78	1533,93
504,98	1548,26
505,19	1513,45
505,40	1556,46
505,61	1527,78
505,82	1572,84
506,03	1671,14
506,23	1507,30
506,44	1519,59
506,65	1589,22
506,86	1599,46
507,07	1556,46
507,28	1542,12
507,48	1552,36
507,69	1576,94
507,90	1505,26
508,11	1497,07
508,32	1574,89
508,53	1578,98
508,73	1521,64
508,94	1404,91
509,15	1587,18
509,36	1482,73
509,57	1462,25
509,77	1515,50
509,98	1507,30
510,19	1605,61
510,40	1591,27
510,61	1548,26
510,81	1474,54
511,02	1550,31
511,23	1624,04
511,44	1464,30
511,65	1503,21
511,85	1560,55
512,06	1445,87
512,27	1538,02
512,48	1484,78
512,69	1613,80
512,89	1589,22
513,10	1578,98
513,31	1554,41
513,52	1560,55
513,73	1488,87
513,93	1603,56
514,14	1675,24
514,35	1662,95
514,56	1611,75
514,76	1609,70
514,97	1628,14
515,18	1624,04
515,39	1599,46
515,60	1540,07
515,80	1593,32
516,01	1626,09
516,22	1679,33
516,43	1550,31
516,63	1621,99
516,84	1538,02
517,05	1568,74
517,26	1538,02
517,46	1585,13
517,67	1589,22
517,88	1548,26
518,09	1517,54
518,29	1535,98
518,50	1712,10
518,71	1517,54
518,92	1646,57
519,12	1550,31
519,33	1595,37
519,54	1525,74
519,75	1650,66
519,95	1521,64
520,16	1441,77
520,37	1458,15
520,57	1605,61
520,78	1669,09
520,99	1560,55
521,20	1626,09
521,40	1523,69
521,61	1544,17
521,82	1503,21
522,03	1492,97
522,23	1564,65
522,44	1484,78
522,65	1501,16
522,85	1460,20
523,06	1478,63
523,27	1585,13
523,48	1449,96
523,68	1497,07
523,89	1585,13
524,10	1505,26
524,30	1562,60
524,51	1533,93
524,72	1486,83
524,93	1599,46
525,13	1507,30
525,34	1550,31
525,55	1546,22
525,75	1548,26
525,96	1562,60
526,17	1511,40
526,37	1609,70
526,58	1583,08
526,79	1511,40
526,99	1478,63
527,20	1585,13
527,41	1556,46
527,62	1460,20
527,82	1615,85
528,03	1554,41
528,24	1552,36
528,44	1615,85
528,65	1515,50
528,86	1486,83
529,06	1507,30
529,27	1484,78
529,48	1525,74
529,68	1630,18
529,89	1593,32
530,10	1578,98
530,30	1558,50
530,51	1462,25
530,72	1501,16
530,92	1638,38
531,13	1521,64
531,34	1628,14
531,54	1486,83
531,75	1490,92
531,96	1685,48
532,16	1572,84
532,37	1656,81
532,57	1556,46
532,78	1525,74
532,99	1517,54
533,19	1572,84
533,40	1648,61
533,61	1542,12
533,81	1591,27
534,02	1572,84
534,23	1486,83
534,43	1628,14
534,64	1546,22
534,84	1585,13
535,05	1572,84
535,26	1544,17
535,46	1624,04
535,67	1621,99
535,88	1480,68
536,08	1564,65
536,29	1628,14
536,49	1581,03
536,70	1554,41
536,91	1464,30
537,11	1589,22
537,32	1439,72
537,53	1574,89
537,73	1656,81
537,94	1458,15
538,14	1503,21
538,35	1529,83
538,56	1507,30
538,76	1515,50
538,97	1578,98
539,17	1521,64
539,38	1640,42
539,59	1556,46
539,79	1587,18
540,00	1611,75
540,20	1611,75
540,41	1538,02
540,62	1624,04
540,82	1445,87
541,03	1525,74
541,23	1544,17
541,44	1574,89
541,64	1578,98
541,85	1535,98
542,06	1533,93
542,26	1501,16
542,47	1497,07
542,67	1527,78
542,88	1544,17
543,08	1578,98
543,29	1615,85
543,50	1660,90
543,70	1621,99
543,91	1499,11
544,11	1538,02
544,32	1617,90
544,52	1662,95
544,73	1431,53
544,94	1515,50
545,14	1480,68
545,35	1540,07
545,55	1535,98
545,76	1615,85
545,96	1521,64
546,17	1462,25
546,37	1484,78
546,58	1615,85
546,78	1441,77
546,99	1531,88
547,20	1613,80
547,40	1654,76
547,61	1535,98
547,81	1533,93
548,02	1566,70
548,22	1568,74
548,43	1656,81
548,63	1542,12
548,84	1593,32
549,04	1566,70
549,25	1472,49
549,45	1542,12
549,66	1423,34
549,86	1587,18
550,07	1517,54
550,27	1566,70
550,48	1548,26
550,69	1605,61
550,89	1658,85
551,10	1517,54
551,30	1642,47
551,51	1478,63
551,71	1511,40
551,92	1495,02
552,12	1519,59
552,33	1488,87
552,53	1548,26
552,74	1581,03
552,94	1572,84
553,15	1454,06
553,35	1687,53
553,56	1474,54
553,76	1529,83
553,97	1566,70
554,17	1464,30
554,38	1656,81
554,58	1591,27
554,79	1542,12
554,99	1558,50
555,19	1521,64
555,40	1597,42
555,60	1546,22
555,81	1519,59
556,01	1509,35
556,22	1630,18
556,42	1535,98
556,63	1454,06
556,83	1597,42
557,04	1538,02
557,24	1642,47
557,45	1531,88
557,65	1558,50
557,86	1576,94
558,06	1497,07
558,27	1562,60
558,47	1523,69
558,67	1560,55
558,88	1503,21
559,08	1550,31
559,29	1482,73
559,49	1628,14
559,70	1540,07
559,90	1552,36
560,11	1570,79
560,31	1542,12
560,52	1630,18
560,72	1511,40
560,92	1632,23
561,13	1560,55
561,33	1523,69
561,54	1531,88
561,74	1658,85
561,95	1538,02
562,15	1675,24
562,35	1568,74
562,56	1607,66
562,76	1495,02
562,97	1550,31
563,17	1544,17
563,38	1617,90
563,58	1601,51
563,78	1544,17
563,99	1509,35
564,19	1554,41
564,40	1642,47
564,60	1636,33
564,80	1558,50
565,01	1535,98
565,21	1587,18
565,42	1667,05
565,62	1533,93
565,83	1578,98
566,03	1624,04
566,23	1624,04
566,44	1626,09
566,64	1492,97
566,85	1630,18
567,05	1595,37
567,25	1511,40
567,46	1646,57
567,66	1470,44
567,86	1703,91
568,07	1656,81
568,27	1673,19
568,48	1435,63
568,68	1550,31
568,88	1529,83
569,09	1667,05
569,29	1615,85
569,50	1581,03
569,70	1658,85
569,90	1665,00
570,11	1615,85
570,31	1624,04
570,51	1650,66
570,72	1570,79
570,92	1681,38
571,13	1705,96
571,33	1525,74
571,53	1693,67
571,74	1585,13
571,94	1703,91
572,14	1638,38
572,35	1552,36
572,55	1683,43
572,75	1650,66
572,96	1771,49
573,16	1658,85
573,36	1695,72
573,57	1708,01
573,77	1593,32
573,97	1714,15
574,18	1685,48
574,38	1632,23
574,59	1753,06
574,79	1761,25
574,99	1650,66
575,20	1763,30
575,40	1738,73
575,60	1740,77
575,81	1800,16
576,01	1724,39
576,21	1685,48
576,42	1775,59
576,62	1738,73
576,82	1695,72
577,02	1740,77
577,23	1714,15
577,43	1779,68
577,63	1890,28
577,84	1736,68
578,04	1810,40
578,24	1701,86
578,45	1781,73
578,65	1703,91
578,85	1859,56
579,06	1898,47
579,26	1880,04
579,46	1804,26
579,67	1826,79
579,87	1890,28
580,07	1796,07
580,27	1796,07
580,48	1871,84
580,68	1865,70
580,88	1974,24
581,09	1810,40
581,29	1898,47
581,49	1920,99
581,69	1818,60
581,90	1806,31
582,10	1757,16
582,30	1892,32
582,51	1986,53
582,71	1918,95
582,91	1900,52
583,11	1964,00
583,32	1996,77
583,52	1972,19
583,72	1888,23
583,93	2021,35
584,13	1982,43
584,33	1953,76
584,53	2070,50
584,74	2052,06
584,94	1986,53
585,14	2047,97
585,34	1990,63
585,55	2041,82
585,75	2093,02
585,95	2076,64
586,15	2090,98
586,36	2160,61
586,56	2076,64
586,76	2215,90
586,96	2136,03
587,17	2070,50
587,37	2136,03
587,57	2185,18
587,77	2187,23
587,98	2273,25
588,18	2228,19
588,38	2209,76
588,58	2203,61
588,79	2209,76
588,99	2119,65
589,19	2332,64
589,39	2367,45
589,60	2215,90
589,80	2340,83
590,00	2406,36
590,20	2416,60
590,40	2381,79
590,61	2453,47
590,81	2328,54
591,01	2381,79
591,21	2430,94
591,42	2465,75
591,62	2357,21
591,82	2480,09
592,02	2553,82
592,22	2512,86
592,43	2445,27
592,63	2627,54
592,83	2635,74
593,03	2582,49
593,23	2549,72
593,44	2555,86
593,64	2609,11
593,84	2564,06
594,04	2512,86
594,24	2510,81
594,45	2627,54
594,65	2475,99
594,85	2635,74
595,05	2598,87
595,25	2674,65
595,46	2615,26
595,66	2605,02
595,86	2605,02
596,06	2519,00
596,26	2457,56
596,46	2535,39
596,67	2484,19
596,87	2443,23
597,07	2566,10
597,27	2465,75
597,47	2488,28
597,67	2562,01
597,88	2494,43
598,08	2441,18
598,28	2488,28
598,48	2514,91
598,68	2383,84
598,88	2467,80
599,09	2412,51
599,29	2330,59
599,49	2359,26
599,69	2400,22
599,89	2291,68
600,09	2170,85
600,30	2312,16
600,50	2320,35
600,70	2322,40
600,90	2250,72
601,10	2248,67
601,30	2291,68
601,50	2183,13
601,71	2275,29
601,91	2277,34
602,11	2101,22
602,31	2179,04
602,51	2101,22
602,71	2107,36
602,91	2066,40
603,11	1957,86
603,32	2148,32
603,52	1974,24
603,72	2011,11
603,92	2011,11
604,12	1927,14
604,32	1955,81
604,52	1990,63
604,72	1949,67
604,93	1957,86
605,13	1927,14
605,33	1966,05
605,53	1912,80
605,73	1867,75
605,93	1943,52
606,13	1828,84
606,33	1837,03
606,53	1914,85
606,74	1832,93
606,94	1871,84
607,14	1826,79
607,34	1703,91
607,54	1724,39
607,74	1808,36
607,94	1755,11
608,14	1802,21
608,34	1703,91
608,54	1748,97
608,74	1796,07
608,95	1687,53
609,15	1832,93
609,35	1628,14
609,55	1712,10
609,75	1744,87
609,95	1798,12
610,15	1687,53
610,35	1673,19
610,55	1675,24
610,75	1708,01
610,95	1710,05
611,15	1724,39
611,35	1728,49
611,55	1718,25
611,76	1738,73
611,96	1642,47
612,16	1810,40
612,36	1720,29
612,56	1714,15
612,76	1679,33
612,96	1708,01
613,16	1769,44
613,36	1699,81
613,56	1699,81
613,76	1722,34
613,96	1681,38
614,16	1624,04
614,36	1632,23
614,56	1665,00
614,76	1703,91
614,96	1591,27
615,16	1646,57
615,36	1501,16
615,56	1621,99
615,76	1640,42
615,97	1609,70
616,17	1642,47
616,37	1613,80
616,57	1640,42
616,77	1642,47
616,97	1671,14
617,17	1470,44
617,37	1609,70
617,57	1548,26
617,77	1648,61
617,97	1683,43
618,17	1544,17
618,37	1626,09
618,57	1650,66
618,77	1542,12
618,97	1619,94
619,17	1619,94
619,37	1658,85
619,57	1570,79
619,77	1607,66
619,97	1587,18
620,17	1630,18
620,37	1572,84
620,57	1513,45
620,77	1589,22
620,97	1546,22
621,17	1560,55
621,37	1525,74
621,57	1558,50
621,77	1572,84
621,97	1703,91
622,17	1521,64
622,37	1599,46
622,57	1636,33
622,77	1589,22
622,97	1533,93
623,17	1572,84
623,37	1650,66
623,57	1660,90
623,77	1531,88
623,97	1497,07
624,16	1470,44
624,36	1621,99
624,56	1517,54
624,76	1562,60
624,96	1525,74
625,16	1624,04
625,36	1556,46
625,56	1566,70
625,76	1538,02
625,96	1533,93
626,16	1540,07
626,36	1525,74
626,56	1652,71
626,76	1673,19
626,96	1529,83
627,16	1642,47
627,36	1513,45
627,56	1642,47
627,76	1605,61
627,96	1529,83
628,16	1589,22
628,35	1583,08
628,55	1548,26
628,75	1621,99
628,95	1505,26
629,15	1621,99
629,35	1533,93
629,55	1552,36
629,75	1634,28
629,95	1544,17
630,15	1517,54
630,35	1562,60
630,55	1630,18
630,75	1546,22
630,95	1644,52
631,14	1597,42
631,34	1597,42
631,54	1648,61
631,74	1540,07
631,94	1542,12
632,14	1566,70
632,34	1581,03
632,54	1542,12
632,74	1505,26
632,94	1552,36
633,14	1638,38
633,33	1533,93
633,53	1527,78
633,73	1628,14
633,93	1601,51
634,13	1529,83
634,33	1578,98
634,53	1533,93
634,73	1665,00
634,93	1490,92
635,12	1474,54
635,32	1564,65
635,52	1560,55
635,72	1529,83
635,92	1452,01
636,12	1681,38
636,32	1587,18
636,52	1503,21
636,71	1509,35
636,91	1607,66
637,11	1581,03
637,31	1535,98
637,51	1499,11
637,71	1740,77
637,91	1540,07
638,11	1503,21
638,30	1482,73
638,50	1454,06
638,70	1669,09
638,90	1603,56
639,10	1597,42
639,30	1550,31
639,50	1519,59
639,69	1517,54
639,89	1544,17
640,09	1497,07
640,29	1630,18
640,49	1550,31
640,69	1480,68
640,88	1460,20
641,08	1507,30
641,28	1603,56
641,48	1634,28
641,68	1472,49
641,88	1644,52
642,07	1515,50
642,27	1603,56
642,47	1523,69
642,67	1581,03
642,87	1538,02
643,07	1589,22
643,26	1544,17
643,46	1548,26
643,66	1503,21
643,86	1527,78
644,06	1585,13
644,26	1587,18
644,45	1511,40
644,65	1515,50
644,85	1470,44
645,05	1646,57
645,25	1585,13
645,44	1576,94
645,64	1499,11
645,84	1595,37
646,04	1433,58
646,24	1613,80
646,43	1595,37
646,63	1527,78
646,83	1548,26
647,03	1552,36
647,23	1546,22
647,42	1595,37
647,62	1570,79
647,82	1621,99
648,02	1470,44
648,22	1642,47
648,41	1556,46
648,61	1486,83
648,81	1611,75
649,01	1554,41
649,20	1617,90
649,40	1533,93
649,60	1722,34
649,80	1564,65
650,00	1564,65
650,19	1523,69
650,39	1531,88
650,59	1544,17
650,79	1492,97
650,98	1535,98
651,18	1523,69
651,38	1552,36
651,58	1511,40
651,77	1527,78
651,97	1609,70
652,17	1511,40
652,37	1564,65
652,56	1501,16
652,76	1548,26
652,96	1566,70
653,16	1544,17
653,35	1523,69
653,55	1509,35
653,75	1495,02
653,95	1615,85
654,14	1603,56
654,34	1472,49
654,54	1550,31
654,74	1531,88
654,93	1509,35
655,13	1525,74
655,33	1425,39
655,52	1585,13
655,72	1529,83
655,92	1511,40
656,12	1548,26
656,31	1531,88
656,51	1578,98
656,71	1488,87
656,91	1462,25
657,10	1472,49
657,30	1503,21
657,50	1533,93
657,69	1540,07
657,89	1556,46
658,09	1665,00
658,29	1615,85
658,48	1578,98
658,68	1552,36
658,88	1619,94
659,07	1552,36
659,27	1628,14
659,47	1472,49
659,66	1562,60
659,86	1449,96
660,06	1533,93
660,26	1464,30
660,45	1615,85
660,65	1634,28
660,85	1574,89
661,04	1415,15
661,24	1570,79
661,44	1492,97
661,63	1564,65
661,83	1617,90
662,03	1564,65
662,22	1554,41
662,42	1621,99
662,62	1499,11
662,81	1421,29
663,01	1574,89
663,21	1578,98
663,40	1521,64
663,60	1566,70
663,80	1505,26
663,99	1687,53
664,19	1501,16
664,39	1697,77
664,58	1564,65
664,78	1538,02
664,98	1488,87
665,17	1587,18
665,37	1585,13
665,57	1570,79
665,76	1521,64
665,96	1417,19
666,16	1544,17
666,35	1640,42
666,55	1593,32
666,74	1531,88
666,94	1613,80
667,14	1482,73
667,33	1593,32
667,53	1552,36
667,73	1593,32
667,92	1660,90
668,12	1572,84
668,32	1636,33
668,51	1486,83
668,71	1533,93
668,90	1464,30
669,10	1523,69
669,30	1509,35
669,49	1550,31
669,69	1505,26
669,89	1511,40
670,08	1507,30
670,28	1861,60
670,47	1535,98
670,67	1607,66
670,87	1607,66
671,06	1576,94
671,26	1578,98
671,45	1452,01
671,65	1527,78
671,85	1554,41
672,04	1568,74
672,24	1501,16
672,43	1576,94
672,63	1501,16
672,83	1497,07
673,02	1513,45
673,22	1552,36
673,41	1581,03
673,61	1443,82
673,81	1587,18
674,00	1628,14
674,20	1544,17
674,39	1550,31
674,59	1492,97
674,78	1521,64
674,98	1685,48
675,18	1474,54
675,37	1464,30
675,57	1535,98
675,76	1581,03
675,96	1564,65
676,15	1527,78
676,35	1630,18
676,55	1556,46
676,74	1509,35
676,94	1505,26
677,13	1511,40
677,33	1632,23
677,52	1531,88
677,72	1509,35
677,91	1419,24
678,11	1533,93
678,31	1499,11
678,50	1511,40
678,70	1519,59
678,89	1515,50
679,09	1587,18
679,28	1519,59
679,48	1609,70
679,67	1570,79
679,87	1558,50
680,06	1779,68
680,26	1628,14
680,46	1548,26
680,65	1574,89
680,85	1542,12
681,04	1521,64
681,24	1535,98
681,43	1480,68
681,63	1564,65
681,82	1497,07
682,02	1441,77
682,21	1574,89
682,41	1513,45
682,60	1564,65
682,80	1460,20
682,99	1617,90
683,19	1626,09
683,38	1634,28
683,58	1529,83
683,77	1554,41
683,97	1497,07
684,16	1662,95
684,36	1574,89
684,55	1581,03
684,75	1548,26
684,94	1566,70
685,14	1589,22
685,33	1458,15
685,53	1499,11
685,72	1531,88
685,92	1630,18
686,11	1468,39
686,31	1507,30
686,50	1646,57
686,70	1576,94
686,89	1548,26
687,09	1513,45
687,28	1480,68
687,48	1550,31
687,67	1591,27
687,87	1511,40
688,06	1529,83
688,26	1593,32
688,45	1576,94
688,65	1517,54
688,84	1603,56
689,03	1499,11
689,23	1527,78
689,42	1652,71
689,62	1615,85
689,81	1613,80
690,01	1591,27
690,20	1507,30
690,40	1611,75
690,59	1673,19
690,79	1458,15
690,98	1552,36
691,17	1535,98
691,37	1615,85
691,56	1558,50
691,76	1640,42
691,95	1546,22
692,15	1439,72
692,34	1556,46
692,54	1552,36
692,73	1552,36
692,92	1619,94
693,12	1587,18
693,31	1533,93
693,51	1591,27
693,70	1454,06
693,90	1515,50
694,09	1574,89
694,28	1521,64
694,48	1599,46
694,67	1558,50
694,87	1585,13
695,06	1589,22
695,26	1511,40
695,45	1538,02
695,64	1581,03
695,84	1560,55
696,03	1550,31
696,23	1562,60
696,42	1548,26
696,61	1472,49
696,81	1507,30
697,00	1480,68
697,20	1523,69
697,39	1482,73
697,58	1492,97
697,78	1710,05
697,97	1515,50
698,17	1515,50
698,36	1562,60
698,55	1525,74
698,75	1556,46
698,94	1552,36
699,14	1519,59
699,33	1449,96
699,52	1556,46
699,72	1507,30
699,91	1458,15
700,10	1538,02
700,30	1591,27
700,49	1486,83
700,69	1488,87
700,88	1515,50
701,07	1527,78
701,27	1501,16
701,46	1662,95
701,65	1544,17
701,85	1583,08
702,04	1621,99
702,23	1462,25
702,43	1460,20
702,62	1538,02
702,82	1589,22
703,01	1648,61
703,20	1570,79
703,40	1497,07
703,59	1554,41
703,78	1624,04
703,98	1583,08
704,17	1544,17
704,36	1521,64
704,56	1591,27
704,75	1413,10
704,94	1531,88
705,14	1597,42
705,33	1589,22
705,52	1535,98
705,72	1505,26
705,91	1574,89
706,10	1497,07
706,30	1509,35
706,49	1654,76
706,68	1517,54
706,88	1591,27
707,07	1497,07
707,26	1564,65
707,46	1638,38
707,65	1605,61
707,84	1470,44
708,04	1441,77
708,23	1603,56
708,42	1564,65
708,62	1519,59
708,81	1556,46
709,00	1693,67
709,19	1632,23
709,39	1574,89
709,58	1513,45
709,77	1474,54
709,97	1611,75
710,16	1570,79
710,35	1617,90
710,55	1572,84
710,74	1607,66
710,93	1492,97
711,12	1558,50
711,32	1550,31
711,51	1583,08
711,70	1482,73
711,90	1550,31
712,09	1499,11
712,28	1554,41
712,47	1540,07
712,67	1607,66
712,86	1642,47
713,05	1599,46
713,24	1519,59
713,44	1482,73
713,63	1554,41
713,82	1546,22
714,02	1601,51
714,21	1669,09
714,40	1529,83
714,59	1578,98
714,79	1488,87
714,98	1593,32
715,17	1742,82
715,36	1499,11
715,56	1595,37
715,75	1544,17
715,94	1482,73
716,13	1531,88
716,33	1576,94
716,52	1570,79
716,71	1558,50
716,90	1558,50
717,10	1503,21
717,29	1519,59
717,48	1624,04
717,67	1515,50
717,87	1515,50
718,06	1544,17
718,25	1507,30
718,44	1615,85
718,63	1568,74
718,83	1478,63
719,02	1560,55
719,21	1546,22
719,40	1449,96
719,60	1509,35
719,79	1562,60
719,98	1538,02
720,17	1566,70
720,36	1613,80
720,56	1583,08
720,75	1476,59
720,94	1550,31
721,13	1581,03
721,33	1564,65
721,52	1472,49
721,71	1605,61
721,90	1574,89
722,09	1519,59
722,29	1482,73
722,48	1427,43
722,67	1484,78
722,86	1630,18
723,05	1488,87
723,24	1599,46
723,44	1511,40
723,63	1497,07
723,82	1509,35
724,01	1517,54
724,20	1540,07
724,40	1441,77
724,59	1609,70
724,78	1458,15
724,97	1585,13
725,16	1611,75
725,35	1624,04
725,55	1576,94
725,74	1576,94
725,93	1634,28
726,12	1599,46
726,31	1591,27
726,51	1585,13
726,70	1560,55
726,89	1572,84
727,08	1480,68
727,27	1531,88
727,46	1513,45
727,65	1523,69
727,85	1562,60
728,04	1542,12
728,23	1519,59
728,42	1527,78
728,61	1619,94
728,80	1515,50
729,00	1603,56
729,19	1542,12
729,38	1658,85
729,57	1552,36
729,76	1519,59
729,95	1638,38
730,14	1525,74
730,33	1568,74
730,53	1576,94
730,72	1564,65
730,91	1519,59
731,10	1570,79
731,29	1642,47
731,48	1572,84
731,67	1525,74
731,86	1517,54
732,06	1542,12
732,25	1449,96
732,44	1486,83
732,63	1507,30
732,82	1597,42
733,01	1636,33
733,20	1447,91
733,39	1576,94
733,59	1562,60
733,78	1581,03
733,97	1681,38
734,16	1550,31
734,35	1566,70
734,54	1595,37
734,73	1533,93
734,92	1634,28
735,11	1574,89
735,30	1517,54
735,49	1613,80
735,69	1656,81
735,88	1540,07
736,07	1527,78
736,26	1515,50
736,45	1533,93
736,64	1548,26
736,83	1630,18
737,02	1630,18
737,21	1495,02
737,40	1454,06
737,59	1681,38
737,78	1560,55
737,98	1503,21
738,17	1566,70
738,36	1662,95
738,55	1490,92
738,74	1513,45
738,93	1505,26
739,12	1474,54
739,31	1556,46
739,50	1492,97
739,69	1628,14
739,88	1492,97
740,07	1542,12
740,26	1585,13
740,45	1517,54
740,64	1568,74
740,83	1497,07
741,02	1511,40
741,22	1542,12
741,41	1576,94
741,60	1595,37
741,79	1519,59
741,98	1601,51
742,17	1556,46
742,36	1646,57
742,55	1474,54
742,74	1736,68
742,93	1546,22
743,12	1609,70
743,31	1535,98
743,50	1564,65
743,69	1531,88
743,88	1544,17
744,07	1511,40
744,26	1644,52
744,45	1587,18
744,64	1611,75
744,83	1519,59
745,02	1423,34
745,21	1521,64
745,40	1472,49
745,59	1669,09
745,78	1574,89
745,97	1511,40
746,16	1634,28
746,35	1540,07
746,54	1517,54
746,73	1540,07
746,92	1542,12
747,11	1433,58
747,30	1513,45
747,49	1478,63
747,68	1572,84
747,87	1523,69
748,06	1480,68
748,25	1562,60
748,44	1523,69
748,63	1593,32
748,82	1515,50
749,01	1548,26
749,20	1540,07
749,39	1474,54
749,58	1497,07
749,77	1587,18
749,96	1452,01
750,15	1523,69
750,34	1519,59
750,53	1701,86
750,72	1576,94
750,91	1462,25
751,10	1605,61
751,29	1474,54
751,48	1480,68
751,67	1468,39
751,86	1595,37
752,04	1544,17
752,23	1570,79
752,42	1572,84
752,61	1546,22
752,80	1538,02
752,99	1556,46
753,18	1593,32
753,37	1529,83
753,56	1402,86
753,75	1517,54
753,94	1486,83
754,13	1564,65
754,32	1497,07
754,51	1439,72
754,70	1531,88
754,89	1499,11
755,08	1576,94
755,27	1507,30
755,45	1511,40
755,64	1492,97
755,83	1556,46
756,02	1605,61
756,21	1527,78
756,40	1562,60
756,59	1511,40
756,78	1531,88
756,97	1488,87
757,16	1488,87
757,35	1615,85
757,54	1507,30
757,72	1613,80
757,91	1488,87
758,10	1495,02
758,29	1486,83
758,48	1609,70
758,67	1521,64
758,86	1587,18
759,05	1529,83
759,24	1554,41
759,43	1501,16
759,61	1454,06
759,80	1497,07
759,99	1583,08
760,18	1544,17
760,37	1558,50
760,56	1523,69
760,75	1662,95
760,94	1558,50
761,13	1540,07
761,31	1642,47
761,50	1550,31
761,69	1531,88
761,88	1531,88
762,07	1480,68
762,26	1548,26
762,45	1546,22
762,64	1566,70
762,82	1470,44
763,01	1576,94
763,20	1544,17
763,39	1562,60
763,58	1529,83
763,77	1441,77
763,96	1474,54
764,14	1492,97
764,33	1476,59
764,52	1540,07
764,71	1576,94
764,90	1560,55
765,09	1576,94
765,27	1540,07
765,46	1544,17
765,65	1521,64
765,84	1472,49
766,03	1593,32
766,22	1464,30
766,41	1558,50
766,59	1552,36
766,78	1574,89
766,97	1531,88
767,16	1554,41
767,35	1478,63
767,54	1687,53
767,72	1583,08
767,91	1540,07
768,10	1488,87
768,29	1501,16
768,48	1576,94
768,66	1624,04
768,85	1583,08
769,04	1437,67
769,23	1513,45
769,42	1562,60
769,61	1480,68
769,79	1593,32
769,98	1535,98
770,17	1538,02
770,36	1546,22
770,55	1542,12
770,73	1558,50
770,92	1562,60
771,11	1619,94
771,30	1507,30
771,49	1523,69
771,67	1587,18
771,86	1523,69
772,05	1523,69
772,24	1529,83
772,42	1492,97
772,61	1523,69
772,80	1474,54
772,99	1437,67
773,18	1597,42
773,36	1531,88
773,55	1478,63
773,74	1511,40
773,93	1511,40
774,11	1480,68
774,30	1554,41
774,49	1458,15
774,68	1540,07
774,87	1593,32
775,05	1492,97
775,24	1488,87
775,43	1628,14
775,62	1538,02
775,80	1497,07
775,99	1621,99
776,18	1640,42
776,37	1607,66
776,55	1542,12
776,74	1488,87
776,93	1533,93
777,12	1548,26
777,30	1607,66
777,49	1472,49
777,68	1529,83
777,87	1544,17
778,05	1527,78
778,24	1513,45
778,43	1566,70
778,62	1484,78
778,80	1554,41
778,99	1591,27
779,18	1599,46
779,36	1654,76
779,55	1583,08
779,74	1556,46
779,93	1576,94
780,11	1636,33
780,30	1566,70
780,49	1640,42
780,68	1533,93
780,86	1628,14
781,05	1486,83
781,24	1648,61
781,42	1546,22
781,61	1568,74
781,80	1535,98
781,98	1521,64
782,17	1546,22
782,36	1546,22
782,55	1513,45
782,73	1507,30
782,92	1658,85
783,11	1425,39
783,29	1574,89
783,48	1540,07
783,67	1581,03
783,85	1585,13
784,04	1589,22
784,23	1621,99
784,42	1593,32
784,60	1515,50
784,79	1642,47
784,98	1497,07
785,16	1548,26
785,35	1562,60
785,54	1603,56
785,72	1671,14
785,91	1601,51
786,10	1503,21
786,28	1615,85
786,47	1558,50
786,66	1550,31
786,84	1560,55
787,03	1552,36
787,22	1589,22
787,40	1544,17
787,59	1591,27
787,78	1632,23
787,96	1466,35
788,15	1566,70
788,34	1497,07
788,52	1578,98
788,71	1630,18
788,89	1523,69
789,08	1525,74
789,27	1658,85
789,45	1488,87
789,64	1478,63
789,83	1490,92
790,01	1464,30
790,20	1546,22
790,39	1556,46
790,57	1445,87
790,76	1560,55
790,95	1538,02
791,13	1554,41
791,32	1576,94
791,50	1607,66
791,69	1544,17
791,88	1638,38
792,06	1599,46
792,25	1687,53
792,43	1556,46
792,62	1585,13
792,81	1540,07
792,99	1560,55
793,18	1552,36
793,37	1581,03
793,55	1554,41
793,74	1527,78
793,92	1597,42
794,11	1578,98
794,30	1572,84
794,48	1591,27
794,67	1456,11
794,85	1581,03
795,04	1470,44
795,23	1544,17
795,41	1550,31
795,60	1568,74
795,78	1578,98
795,97	1658,85
796,15	1527,78
796,34	1619,94
796,53	1490,92
796,71	1562,60
796,90	1570,79
797,08	1431,53
797,27	1597,42
797,46	1599,46
797,64	1464,30
797,83	1611,75
798,01	1505,26
798,20	1572,84
798,38	1609,70
798,57	1435,63
798,76	1470,44
798,94	1447,91
799,13	1609,70
799,31	1552,36
799,50	1458,15
799,68	1501,16
799,87	1456,11
800,05	1585,13
800,24	1503,21
800,43	1492,97
800,61	1695,72
800,80	1617,90
800,98	1460,20
801,17	1484,78
801,35	1511,40
801,54	1570,79
801,72	1533,93
801,91	1587,18
802,09	1447,91
802,28	1562,60
802,46	1499,11
802,65	1566,70
802,84	1576,94
803,02	1509,35
803,21	1527,78
803,39	1540,07
803,58	1554,41
803,76	1630,18
803,95	1572,84
804,13	1462,25
804,32	1519,59
804,50	1609,70
804,69	1646,57
804,87	1521,64
805,06	1581,03
805,24	1597,42
805,43	1597,42
805,61	1570,79
805,80	1583,08
805,98	1521,64
806,17	1517,54
806,35	1515,50
806,54	1517,54
806,72	1452,01
806,91	1589,22
807,09	1538,02
807,28	1599,46
807,46	1572,84
807,65	1613,80
807,83	1513,45
808,02	1492,97
808,20	1607,66
808,39	1509,35
808,57	1568,74
808,76	1521,64
808,94	1630,18
809,13	1517,54
809,31	1429,48
809,49	1581,03
809,68	1531,88
809,86	1521,64
810,05	1513,45
810,23	1576,94
810,42	1599,46
810,60	1505,26
810,79	1517,54
810,97	1499,11
811,16	1488,87
811,34	1572,84
811,53	1562,60
811,71	1529,83
811,89	1630,18
812,08	1560,55
812,26	1492,97
812,45	1574,89
812,63	1564,65
812,82	1619,94
813,00	1558,50
813,19	1531,88
813,37	1609,70
813,55	1585,13
813,74	1462,25
813,92	1642,47
814,11	1576,94
814,29	1478,63
814,48	1564,65
814,66	1578,98
814,84	1611,75
815,03	1581,03
815,21	1591,27
815,40	1609,70
815,58	1572,84
815,77	1558,50
815,95	1546,22
816,13	1552,36
816,32	1648,61
816,50	1615,85
816,69	1533,93
816,87	1521,64
817,05	1521,64
817,24	1587,18
817,42	1476,59
817,61	1492,97
817,79	1591,27
817,97	1505,26
818,16	1515,50
818,34	1638,38
818,53	1572,84
818,71	1517,54
818,89	1419,24
819,08	1548,26
819,26	1538,02
819,45	1519,59
819,63	1669,09
819,81	1562,60
820,00	1617,90
820,18	1511,40
820,36	1558,50
820,55	1538,02
820,73	1474,54
820,92	1486,83
821,10	1509,35
821,28	1527,78
821,47	1605,61
821,65	1556,46
821,83	1724,39
822,02	1490,92
822,20	1566,70
822,39	1462,25
822,57	1509,35
822,75	1617,90
822,94	1511,40
823,12	1576,94
823,30	1425,39
823,49	1691,62
823,67	1589,22
823,85	1540,07
824,04	1533,93
824,22	1611,75
824,40	1626,09
824,59	1546,22
824,77	1628,14
824,95	1544,17
825,14	1578,98
825,32	1615,85
825,50	1544,17
825,69	1505,26
825,87	1601,51
826,05	1560,55
826,24	1562,60
826,42	1597,42
826,60	1597,42
826,79	1544,17
826,97	1462,25
827,15	1531,88
827,34	1478,63
827,52	1492,97
827,70	1529,83
827,89	1466,35
828,07	1474,54
828,25	1542,12
828,44	1583,08
828,62	1507,30
828,80	1597,42
828,98	1611,75
829,17	1492,97
829,35	1566,70
829,53	1556,46
829,72	1585,13
829,90	1511,40
830,08	1529,83
830,27	1562,60
830,45	1583,08
830,63	1560,55
830,81	1478,63
831,00	1585,13
831,18	1550,31
831,36	1550,31
831,55	1542,12
831,73	1554,41
831,91	1501,16
832,09	1642,47
832,28	1583,08
832,46	1513,45
832,64	1562,60
832,82	1447,91
833,01	1531,88
833,19	1482,73
833,37	1560,55
833,55	1525,74
833,74	1546,22
833,92	1511,40
834,10	1626,09
834,29	1533,93
834,47	1458,15
834,65	1507,30
834,83	1452,01
835,02	1495,02
835,20	1492,97
835,38	1501,16
835,56	1538,02
835,75	1607,66
835,93	1548,26
836,11	1550,31
836,29	1509,35
836,47	1593,32
836,66	1542,12
836,84	1542,12
837,02	1529,83
837,20	1632,23
837,39	1578,98
837,57	1527,78
837,75	1433,58
837,93	1499,11
838,12	1507,30
838,30	1540,07
838,48	1517,54
838,66	1595,37
838,84	1562,60
839,03	1681,38
839,21	1476,59
839,39	1513,45
839,57	1591,27
839,75	1533,93
839,94	1578,98
840,12	1585,13
840,30	1511,40
840,48	1589,22
840,66	1507,30
840,85	1478,63
841,03	1486,83
841,21	1613,80
841,39	1601,51
841,57	1595,37
841,76	1564,65
841,94	1585,13
842,12	1529,83
842,30	1548,26
842,48	1601,51
842,67	1564,65
842,85	1503,21
843,03	1535,98
843,21	1615,85
843,39	1523,69
843,57	1546,22
843,76	1509,35
843,94	1501,16
844,12	1529,83
844,30	1486,83
844,48	1538,02
844,66	1578,98
844,85	1511,40
845,03	1554,41
845,21	1521,64
845,39	1632,23
845,57	1521,64
845,75	1574,89
845,94	1564,65
846,12	1529,83
846,30	1542,12
846,48	1556,46
846,66	1562,60
846,84	1484,78
847,02	1531,88
847,21	1581,03
847,39	1480,68
847,57	1568,74
847,75	1474,54
847,93	1511,40
848,11	1511,40
848,29	1480,68
848,48	1527,78
848,66	1478,63
848,84	1591,27
849,02	1486,83
849,20	1486,83
849,38	1499,11
849,56	1533,93
849,74	1570,79
849,93	1605,61
850,11	1542,12
850,29	1464,30
850,47	1546,22
850,65	1513,45
850,83	1488,87
851,01	1554,41
851,19	1587,18
851,37	1490,92
851,56	1466,35
851,74	1564,65
851,92	1517,54
852,10	1509,35
852,28	1585,13
852,46	1615,85
852,64	1617,90
852,82	1505,26
853,00	1562,60
853,18	1587,18
853,37	1560,55
853,55	1548,26
853,73	1568,74
853,91	1566,70
854,09	1484,78
854,27	1568,74
854,45	1513,45
854,63	1525,74
854,81	1513,45
854,99	1505,26
855,17	1538,02
855,35	1531,88
855,53	1542,12
855,72	1546,22
855,90	1630,18
856,08	1638,38
856,26	1515,50
856,44	1677,29
856,62	1490,92
856,80	1533,93
856,98	1460,20
857,16	1550,31
857,34	1525,74
857,52	1560,55
857,70	1546,22
857,88	1513,45
858,06	1503,21
858,24	1527,78
858,42	1615,85
858,60	1482,73
858,78	1499,11
858,96	1486,83
859,15	1474,54
859,33	1566,70
859,51	1468,39
859,69	1490,92
859,87	1511,40
860,05	1529,83
860,23	1507,30
860,41	1519,59
860,59	1621,99
860,77	1570,79
860,95	1568,74
861,13	1566,70
861,31	1531,88
861,49	1466,35
861,67	1599,46
861,85	1566,70
862,03	1585,13
862,21	1556,46
862,39	1589,22
862,57	1665,00
862,75	1529,83
862,93	1581,03
863,11	1611,75
863,29	1484,78
863,47	1583,08
863,65	1642,47
863,83	1456,11
864,01	1523,69
864,19	1562,60
864,37	1513,45
864,55	1578,98
864,73	1566,70
864,91	1574,89
865,09	1583,08
865,27	1583,08
865,45	1566,70
865,63	1499,11
865,81	1564,65
865,99	1527,78
866,17	1587,18
866,35	1538,02
866,53	1570,79
866,71	1556,46
866,89	1617,90
867,07	1556,46
867,24	1589,22
867,42	1572,84
867,60	1617,90
867,78	1632,23
867,96	1591,27
868,14	1554,41
868,32	1611,75
868,50	1490,92
868,68	1554,41
868,86	1605,61
869,04	1550,31
869,22	1521,64
869,40	1492,97
869,58	1511,40
869,76	1495,02
869,94	1507,30
870,12	1503,21
870,30	1505,26
870,48	1554,41
870,66	1562,60
870,83	1593,32
871,01	1566,70
871,19	1458,15
871,37	1509,35
871,55	1437,67
871,73	1497,07
871,91	1519,59
872,09	1558,50
872,27	1535,98
872,45	1478,63
872,63	1437,67
872,81	1527,78
872,98	1591,27
873,16	1599,46
873,34	1591,27
873,52	1517,54
873,70	1540,07
873,88	1503,21
874,06	1439,72
874,24	1533,93
874,42	1495,02
874,60	1492,97
874,78	1435,63
874,95	1488,87
875,13	1509,35
875,31	1601,51
875,49	1634,28
875,67	1488,87
875,85	1462,25
876,03	1558,50
876,21	1572,84
876,39	1511,40
876,56	1613,80
876,74	1484,78
876,92	1564,65
877,10	1574,89
877,28	1548,26
877,46	1458,15
877,64	1597,42
877,82	1599,46
877,99	1441,77
878,17	1550,31
878,35	1533,93
878,53	1648,61
878,71	1624,04
878,89	1593,32
879,07	1554,41
879,24	1562,60
879,42	1560,55
879,60	1525,74
879,78	1550,31
879,96	1525,74
880,14	1656,81
880,32	1521,64
880,49	1560,55
880,67	1533,93
880,85	1501,16
881,03	1531,88
881,21	1499,11
881,39	1597,42
881,56	1507,30
881,74	1585,13
881,92	1511,40
882,10	1542,12
882,28	1587,18
882,46	1533,93
882,63	1476,59
882,81	1419,24
882,99	1464,30
883,17	1531,88
883,35	1578,98
883,52	1642,47
883,70	1521,64
883,88	1566,70
884,06	1609,70
884,24	1570,79
884,42	1660,90
884,59	1630,18
884,77	1529,83
884,95	1570,79
885,13	1523,69
885,31	1515,50
885,48	1486,83
885,66	1597,42
885,84	1527,78
886,02	1562,60
886,20	1636,33
886,37	1589,22
886,55	1638,38
886,73	1624,04
886,91	1552,36
887,08	1556,46
887,26	1562,60
887,44	1568,74
887,62	1595,37
887,80	1564,65
887,97	1533,93
888,15	1578,98
888,33	1570,79
888,51	1488,87
888,68	1523,69
888,86	1583,08
889,04	1478,63
889,22	1607,66
889,40	1447,91
889,57	1478,63
889,75	1683,43
889,93	1507,30
890,11	1542,12
890,28	1605,61
890,46	1511,40
890,64	1529,83
890,82	1574,89
890,99	1617,90
891,17	1439,72
891,35	1478,63
891,53	1632,23
891,70	1505,26
891,88	1499,11
892,06	1505,26
892,24	1503,21
892,41	1499,11
892,59	1495,02
892,77	1542,12
892,94	1486,83
893,12	1462,25
893,30	1456,11
893,48	1566,70
893,65	1542,12
893,83	1488,87
894,01	1665,00
894,19	1513,45
894,36	1671,14
894,54	1486,83
894,72	1486,83
894,89	1488,87
895,07	1556,46
895,25	1570,79
895,43	1427,43
895,60	1505,26
895,78	1550,31
895,96	1523,69
896,13	1640,42
896,31	1628,14
896,49	1556,46
896,66	1540,07
896,84	1611,75
897,02	1630,18
897,20	1591,27
897,37	1568,74
897,55	1425,39
897,73	1617,90
897,90	1546,22
898,08	1574,89
898,26	1615,85
898,43	1515,50
898,61	1529,83
898,79	1583,08
898,96	1517,54
899,14	1490,92
899,32	1515,50
899,49	1564,65
899,67	1542,12
899,85	1726,44
900,02	1660,90
900,20	1540,07
900,38	1591,27
900,55	1626,09
900,73	1728,49
900,91	1484,78
901,08	1558,50
901,26	1462,25
901,44	1507,30
901,61	1548,26
901,79	1578,98
901,97	1554,41
902,14	1556,46
902,32	1550,31
902,50	1566,70
902,67	1495,02
902,85	1583,08
903,02	1570,79
903,20	1423,34
903,38	1531,88
903,55	1499,11
903,73	1540,07
903,91	1525,74
904,08	1609,70
904,26	1546,22
904,44	1669,09
904,61	1482,73
904,79	1568,74
904,96	1482,73
905,14	1529,83
905,32	1540,07
905,49	1554,41
905,67	1435,63
905,84	1462,25
906,02	1533,93
906,20	1542,12
906,37	1703,91
906,55	1578,98
906,73	1564,65
906,90	1624,04
907,08	1499,11
907,25	1519,59
907,43	1605,61
907,61	1480,68
907,78	1552,36
907,96	1466,35
908,13	1576,94
908,31	1605,61
908,48	1568,74
908,66	1511,40
908,84	1540,07
909,01	1583,08
909,19	1611,75
909,36	1488,87
909,54	1499,11
909,72	1581,03
909,89	1460,20
910,07	1482,73
910,24	1665,00
910,42	1609,70
910,59	1501,16
910,77	1540,07
910,95	1517,54
911,12	1501,16
911,30	1554,41
911,47	1492,97
911,65	1593,32
911,82	1468,39
912,00	1550,31
912,17	1484,78
912,35	1511,40
912,53	1705,96
912,70	1628,14
912,88	1548,26
913,05	1595,37
913,23	1550,31
913,40	1566,70
913,58	1538,02
913,75	1540,07
913,93	1511,40
914,10	1527,78
914,28	1531,88
914,46	1550,31
914,63	1466,35
914,81	1538,02
914,98	1472,49
915,16	1492,97
915,33	1581,03
915,51	1585,13
915,68	1681,38
915,86	1560,55
916,03	1474,54
916,21	1382,38
916,38	1488,87
916,56	1556,46
916,73	1613,80
916,91	1501,16
917,08	1544,17
917,26	1558,50
917,43	1556,46
917,61	1490,92
917,78	1554,41
917,96	1572,84
918,13	1468,39
918,31	1619,94
918,48	1505,26
918,66	1413,10
918,83	1570,79
919,01	1523,69
919,18	1464,30
919,36	1480,68
919,53	1587,18
919,71	1730,53
919,88	1656,81
920,06	1499,11
920,23	1468,39
920,41	1613,80
920,58	1542,12
920,76	1597,42
920,93	1552,36
921,11	1472,49
921,28	1548,26
921,45	1593,32
921,63	1581,03
921,80	1538,02
921,98	1552,36
922,15	1492,97
922,33	1464,30
922,50	1572,84
922,68	1578,98
922,85	1611,75
923,03	1589,22
923,20	1626,09
923,38	1523,69
923,55	1587,18
923,72	1503,21
923,90	1751,01
924,07	1560,55
924,25	1599,46
924,42	1691,62
924,60	1562,60
924,77	1538,02
924,95	1540,07
925,12	1572,84
925,29	1658,85
925,47	1560,55
925,64	1478,63
925,82	1529,83
925,99	1538,02
926,17	1564,65
926,34	1576,94
926,51	1595,37
926,69	1552,36
926,86	1609,70
927,04	1527,78
927,21	1523,69
927,38	1474,54
927,56	1527,78
927,73	1570,79
927,91	1517,54
928,08	1656,81
928,25	1523,69
928,43	1585,13
928,60	1499,11
928,78	1568,74
928,95	1540,07
929,12	1605,61
929,30	1562,60
929,47	1572,84
929,65	1548,26
929,82	1556,46
929,99	1576,94
930,17	1511,40
930,34	1585,13
930,52	1544,17
930,69	1513,45
930,86	1581,03
931,04	1538,02
931,21	1464,30
931,38	1578,98
931,56	1538,02
931,73	1679,33
931,91	1542,12
932,08	1548,26
932,25	1660,90
932,43	1585,13
932,60	1515,50
932,77	1566,70
932,95	1462,25
933,12	1564,65
933,29	1466,35
933,47	1726,44
933,64	1466,35
933,82	1542,12
933,99	1568,74
934,16	1630,18
934,34	1583,08
934,51	1548,26
934,68	1546,22
934,86	1550,31
935,03	1488,87
935,20	1503,21
935,38	1548,26
935,55	1538,02
935,72	1587,18
935,90	1470,44
936,07	1554,41
936,24	1460,20
936,42	1624,04
936,59	1533,93
936,76	1642,47
936,94	1492,97
937,11	1599,46
937,28	1572,84
937,46	1427,43
937,63	1585,13
937,80	1540,07
937,97	1662,95
938,15	1564,65
938,32	1470,44
938,49	1671,14
938,67	1517,54
938,84	1581,03
939,01	1505,26
939,19	1585,13
939,36	1574,89
939,53	1601,51
939,70	1548,26
939,88	1560,55
940,05	1570,79
940,22	1550,31
940,40	1656,81
940,57	1632,23
940,74	1519,59
940,92	1568,74
941,09	1556,46
941,26	1492,97
941,43	1593,32
941,61	1562,60
941,78	1558,50
941,95	1654,76
942,12	1554,41
942,30	1497,07
942,47	1546,22
942,64	1495,02
942,82	1660,90
942,99	1650,66
943,16	1427,43
943,33	1646,57
943,51	1449,96
943,68	1474,54
943,85	1576,94
944,02	1519,59
944,20	1564,65
944,37	1540,07
944,54	1605,61
944,71	1531,88
944,89	1560,55
945,06	1523,69
945,23	1554,41
945,40	1652,71
945,58	1488,87
945,75	1560,55
945,92	1613,80
946,09	1603,56
946,27	1589,22
946,44	1435,63
946,61	1624,04
946,78	1544,17
946,95	1546,22
947,13	1474,54
947,30	1538,02
947,47	1531,88
947,64	1486,83
947,82	1505,26
947,99	1550,31
948,16	1503,21
948,33	1517,54
948,50	1495,02
948,68	1611,75
948,85	1511,40
949,02	1611,75
949,19	1505,26
949,36	1609,70
949,54	1497,07
949,71	1617,90
949,88	1474,54
950,05	1576,94
950,22	1581,03
950,40	1609,70
950,57	1470,44
950,74	1595,37
950,91	1589,22
951,08	1578,98
951,26	1599,46
951,43	1587,18
951,60	1574,89
951,77	1540,07
951,94	1578,98
952,11	1621,99
952,29	1589,22
952,46	1515,50
952,63	1648,61
952,80	1570,79
952,97	1529,83
953,15	1595,37
953,32	1519,59
953,49	1499,11
953,66	1562,60
953,83	1560,55
954,00	1517,54
954,17	1452,01
954,35	1646,57
954,52	1478,63
954,69	1609,70
954,86	1634,28
955,03	1609,70
955,20	1470,44
955,38	1546,22
955,55	1507,30
955,72	1611,75
955,89	1533,93
956,06	1595,37
956,23	1546,22
956,40	1564,65
956,58	1439,72
956,75	1425,39
956,92	1515,50
957,09	1503,21
957,26	1554,41
957,43	1531,88
957,60	1589,22
957,77	1552,36
957,95	1574,89
958,12	1472,49
958,29	1566,70
958,46	1609,70
958,63	1497,07
958,80	1578,98
958,97	1595,37
959,14	1517,54
959,31	1589,22
959,49	1566,70
959,66	1470,44
959,83	1572,84
960,00	1525,74
960,17	1558,50
960,34	1544,17
960,51	1495,02
960,68	1552,36
960,85	1560,55
961,02	1503,21
961,20	1593,32
961,37	1509,35
961,54	1630,18
961,71	1511,40
961,88	1544,17
962,05	1544,17
962,22	1615,85
962,39	1515,50
962,56	1550,31
962,73	1535,98
962,90	1486,83
963,07	1470,44
963,24	1578,98
963,42	1490,92
963,59	1642,47
963,76	1544,17
963,93	1671,14
964,10	1546,22
964,27	1611,75
964,44	1615,85
964,61	1484,78
964,78	1560,55
964,95	1503,21
965,12	1558,50
965,29	1558,50
965,46	1521,64
965,63	1578,98
965,80	1560,55
965,97	1538,02
966,14	1521,64
966,31	1535,98
966,48	1619,94
966,66	1568,74
966,83	1523,69
967,00	1546,22
967,17	1474,54
967,34	1617,90
967,51	1576,94
967,68	1572,84
967,85	1462,25
968,02	1558,50
968,19	1523,69
968,36	1587,18
968,53	1556,46
968,70	1597,42
968,87	1419,24
969,04	1564,65
969,21	1538,02
969,38	1646,57
969,55	1458,15
969,72	1597,42
969,89	1642,47
970,06	1576,94
970,23	1548,26
970,40	1495,02
970,57	1507,30
970,74	1593,32
970,91	1578,98
971,08	1578,98
971,25	1581,03
971,42	1583,08
971,59	1562,60
971,76	1525,74
971,93	1540,07
972,10	1437,67
972,27	1484,78
972,44	1521,64
972,61	1517,54
972,78	1523,69
972,95	1554,41
973,12	1621,99
973,29	1556,46
973,46	1505,26
973,63	1544,17
973,80	1613,80
973,97	1486,83
974,14	1591,27
974,30	1603,56
974,47	1550,31
974,64	1527,78
974,81	1488,87
974,98	1693,67
975,15	1478,63
975,32	1589,22
975,49	1509,35
975,66	1556,46
975,83	1662,95
976,00	1566,70
976,17	1482,73
976,34	1519,59
976,51	1562,60
976,68	1605,61
976,85	1531,88
977,02	1609,70
977,19	1515,50
977,36	1458,15
977,52	1636,33
977,69	1542,12
977,86	1636,33
978,03	1558,50
978,20	1595,37
978,37	1611,75
978,54	1662,95
978,71	1642,47
978,88	1615,85
979,05	1540,07
979,22	1556,46
979,39	1675,24
979,56	1578,98
979,72	1441,77
979,89	1632,23
980,06	1558,50
980,23	1648,61
980,40	1488,87
980,57	1562,60
980,74	1540,07
980,91	1595,37
981,08	1540,07
981,25	1495,02
981,41	1591,27
981,58	1589,22
981,75	1427,43
981,92	1556,46
982,09	1466,35
982,26	1564,65
982,43	1441,77
982,60	1538,02
982,77	1572,84
982,93	1542,12
983,10	1490,92
983,27	1574,89
983,44	1435,63
983,61	1665,00
983,78	1482,73
983,95	1519,59
984,11	1431,53
984,28	1628,14
984,45	1570,79
984,62	1531,88
984,79	1505,26
984,96	1605,61
985,13	1589,22
985,30	1619,94
985,46	1552,36
985,63	1503,21
985,80	1615,85
985,97	1509,35
986,14	1583,08
986,31	1572,84
986,47	1540,07
986,64	1484,78
986,81	1515,50
986,98	1529,83
987,15	1597,42
987,32	1540,07
987,48	1533,93
987,65	1566,70
987,82	1581,03
987,99	1550,31
988,16	2043,87
988,33	1630,18
988,49	1531,88
988,66	1591,27
988,83	1568,74
989,00	1615,85
989,17	1499,11
989,34	1589,22
989,50	1589,22
989,67	1505,26
989,84	1484,78
990,01	1525,74
990,18	1581,03
990,34	1581,03
990,51	1480,68
990,68	1464,30
990,85	1677,29
991,02	1556,46
991,18	1505,26
991,35	1482,73
991,52	1568,74
991,69	1425,39
991,86	1460,20
992,02	1587,18
992,19	1466,35
992,36	1613,80
992,53	1654,76
992,69	1529,83
992,86	1490,92
993,03	1632,23
993,20	1417,19
993,37	1564,65
993,53	1570,79
993,70	1578,98
993,87	1439,72
994,04	1601,51
994,20	1501,16
994,37	1495,02
994,54	1544,17
994,71	1550,31
994,87	1581,03
995,04	1578,98
995,21	1533,93
995,38	1466,35
995,55	1499,11
995,71	1585,13
995,88	1529,83
996,05	1603,56
996,22	1609,70
996,38	1533,93
996,55	1519,59
996,72	1574,89
996,88	1761,25
997,05	2471,90
997,22	1581,03
997,39	1519,59
997,55	1636,33
997,72	1568,74
997,89	1548,26
998,06	1501,16
998,22	1540,07
998,39	1427,43
998,56	1499,11
998,73	1585,13
998,89	1591,27
999,06	1583,08
999,23	1587,18
999,39	1533,93
999,56	1562,60
999,73	1499,11
999,90	1484,78
1000,06	1585,13
1000,23	1535,98
1000,40	1542,12
1000,56	1619,94
1000,73	1501,16
1000,90	1519,59
1001,06	1570,79
1001,23	1525,74
1001,40	1564,65
1001,57	1591,27
1001,73	1480,68
1001,90	1392,62
1002,07	1529,83
1002,23	1615,85
1002,40	1478,63
1002,57	1535,98
1002,73	1527,78
1002,90	1632,23
1003,07	1605,61
1003,23	1447,91
1003,40	1560,55
1003,57	1478,63
1003,73	1484,78
1003,90	1562,60
1004,07	1460,20
1004,23	1583,08
1004,40	1527,78
1004,57	1488,87
1004,73	1441,77
1004,90	1538,02
1005,07	1572,84
1005,23	1529,83
1005,40	1499,11
1005,57	1630,18
1005,73	1560,55
1005,90	1472,49
1006,07	1597,42
1006,23	1507,30
1006,40	1540,07
1006,57	1521,64
1006,73	1611,75
1006,90	1517,54
1007,06	1433,58
1007,23	1544,17
1007,40	1538,02
1007,56	1570,79
1007,73	1617,90
1007,90	1601,51
1008,06	1603,56
1008,23	1521,64
1008,40	1576,94
1008,56	1495,02
1008,73	1576,94
1008,89	1617,90
1009,06	1646,57
1009,23	1488,87
1009,39	1607,66
1009,56	1540,07
1009,72	1517,54
1009,89	1538,02
1010,06	1589,22
1010,22	1552,36
1010,39	1484,78
1010,55	1462,25
1010,72	1490,92
1010,89	1507,30
1011,05	1654,76
1011,22	1464,30
1011,38	1521,64
1011,55	1558,50
1011,72	1462,25
1011,88	1517,54
1012,05	1591,27
1012,21	1554,41
1012,38	1495,02
1012,55	1544,17
1012,71	1456,11
1012,88	1609,70
1013,04	1564,65
1013,21	1533,93
1013,37	1568,74
1013,54	1572,84
1013,71	1531,88
1013,87	1589,22
1014,04	1599,46
1014,20	1568,74
1014,37	1509,35
1014,53	1517,54
1014,70	1470,44
1014,87	1523,69
1015,03	1617,90
1015,20	1527,78
1015,36	1544,17
1015,53	1499,11
1015,69	1654,76
1015,86	1529,83
1016,02	1540,07
1016,19	1597,42
1016,36	1476,59
1016,52	1538,02
1016,69	1585,13
1016,85	1554,41
1017,02	1613,80
1017,18	1509,35
1017,35	1542,12
1017,51	1550,31
1017,68	1558,50
1017,84	1402,86
1018,01	1454,06
1018,17	1615,85
1018,34	1634,28
1018,50	1523,69
1018,67	1531,88
1018,84	1599,46
1019,00	1509,35
1019,17	1585,13
1019,33	1581,03
1019,50	1568,74
1019,66	1621,99
1019,83	1454,06
1019,99	1593,32
1020,16	1400,81
1020,32	1511,40
1020,49	1558,50
1020,65	1609,70
1020,82	1640,42
1020,98	1540,07
1021,15	1628,14
1021,31	1560,55
1021,48	1550,31
1021,64	1521,64
1021,81	1529,83
1021,97	1515,50
1022,14	1624,04
1022,30	1576,94
1022,47	1529,83
1022,63	1527,78
1022,79	1591,27
1022,96	1492,97
1023,12	1632,23
1023,29	1531,88
1023,45	1669,09
1023,62	1646,57
1023,78	1562,60
1023,95	1566,70
1024,11	1576,94
1024,28	1488,87
1024,44	1501,16
1024,61	1523,69
1024,77	1562,60
1024,94	1558,50
1025,10	1550,31
1025,26	1525,74
1025,43	1587,18
1025,59	1490,92
1025,76	1521,64
1025,92	1558,50
1026,09	1529,83
1026,25	1578,98
1026,42	1478,63
1026,58	1398,76
1026,74	1495,02
1026,91	1529,83
1027,07	1511,40
1027,24	1615,85
1027,40	1533,93
1027,57	1589,22
1027,73	1523,69
1027,90	1572,84
1028,06	1513,45
1028,22	1564,65
1028,39	1564,65
1028,55	1527,78
1028,72	1572,84
1028,88	1624,04
1029,04	1505,26
1029,21	1574,89
1029,37	1529,83
1029,54	1570,79
1029,70	1533,93
1029,87	1501,16
1030,03	1480,68
1030,19	1675,24
1030,36	1550,31
1030,52	1552,36
1030,69	1535,98
1030,85	1452,01
1031,01	1617,90
1031,18	1570,79
1031,34	1595,37
1031,50	1560,55
1031,67	1619,94
1031,83	1599,46
1032,00	1503,21
1032,16	1591,27
1032,32	1581,03
1032,49	1589,22
1032,65	1652,71
1032,82	1556,46
1032,98	1515,50
1033,14	1462,25
1033,31	1597,42
1033,47	1642,47
1033,63	1499,11
1033,80	1558,50
1033,96	1509,35
1034,13	1607,66
1034,29	1568,74
1034,45	1535,98
1034,62	1581,03
1034,78	1654,76
1034,94	1505,26
1035,11	1652,71
1035,27	1439,72
1035,43	1560,55
1035,60	1619,94
1035,76	1480,68
1035,92	1619,94
1036,09	1527,78
1036,25	1488,87
1036,41	1587,18
1036,58	1601,51
1036,74	1650,66
1036,90	1533,93
1037,07	1474,54
1037,23	1593,32
1037,39	1642,47
1037,56	1540,07
1037,72	1490,92
1037,88	1595,37
1038,05	1492,97
1038,21	1546,22
1038,37	1531,88
1038,54	1597,42
1038,70	1658,85
1038,86	1480,68
1039,03	1566,70
1039,19	1609,70
1039,35	1441,77
1039,52	1503,21
1039,68	1591,27
1039,84	1486,83
1040,00	1585,13
1040,17	1540,07
1040,33	1533,93
1040,49	1535,98
1040,66	1538,02
1040,82	1482,73
1040,98	1511,40
1041,15	1595,37
1041,31	1597,42
1041,47	1507,30
1041,63	1497,07
1041,80	1507,30
1041,96	1601,51
1042,12	1550,31
1042,29	1630,18
1042,45	1558,50
1042,61	1413,10
1042,77	1538,02
1042,94	1568,74
1043,10	1705,96
1043,26	1564,65
1043,42	1482,73
1043,59	1613,80
1043,75	1540,07
1043,91	1505,26
1044,07	1570,79
1044,24	1531,88
1044,40	1546,22
>>>>>End Processed Spectral Data<<<<<
