SpectraSuite Data File
++++++++++++++++++++++++++++++++++++
Date: Wed Sep 25 10:31:58 GMT-03:00 2024
User: Lavfis
Dark Spectrum Present: No
Reference Spectrum Present: No
Number of Sampled Component Spectra: 1
Spectrometers: USB4F02573
Integration Time (usec): 100000 (USB4F02573)
Spectra Averaged: 1 (USB4F02573)
Boxcar Smoothing: 0 (USB4F02573)
Correct for Electrical Dark: No (USB4F02573)
Strobe/Lamp Enabled: No (USB4F02573)
Correct for Detector Non-linearity: No (USB4F02573)
Correct for Stray Light: No (USB4F02573)
Number of Pixels in Processed Spectrum: 3648
>>>>>Begin Processed Spectral Data<<<<<
345,22	1339,37
345,44	1339,37
345,66	1339,37
345,88	1316,84
346,10	1351,66
346,32	1601,51
346,54	1613,80
346,75	1542,12
346,97	1482,73
347,19	1581,03
347,41	1501,16
347,63	1456,11
347,85	1558,50
348,07	1521,64
348,29	1593,32
348,51	1560,55
348,73	1654,76
348,95	1447,91
349,16	1515,50
349,38	1482,73
349,60	1665,00
349,82	1531,88
350,04	1495,02
350,26	1574,89
350,48	1630,18
350,70	1560,55
350,92	1538,02
351,14	1640,42
351,35	1615,85
351,57	1503,21
351,79	1587,18
352,01	1562,60
352,23	1458,15
352,45	1589,22
352,67	1482,73
352,89	1554,41
353,10	1490,92
353,32	1566,70
353,54	1554,41
353,76	1640,42
353,98	1632,23
354,20	1601,51
354,42	1531,88
354,64	1488,87
354,85	1624,04
355,07	1560,55
355,29	1572,84
355,51	1544,17
355,73	1521,64
355,95	1515,50
356,17	1597,42
356,38	1591,27
356,60	1591,27
356,82	1564,65
357,04	1525,74
357,26	1503,21
357,48	1630,18
357,69	1523,69
357,91	1495,02
358,13	1542,12
358,35	1595,37
358,57	1585,13
358,79	1585,13
359,01	1630,18
359,22	1570,79
359,44	1564,65
359,66	1593,32
359,88	1474,54
360,10	1533,93
360,32	1556,46
360,53	1505,26
360,75	1513,45
360,97	1650,66
361,19	1568,74
361,41	1652,71
361,62	1589,22
361,84	1589,22
362,06	1538,02
362,28	1540,07
362,50	1564,65
362,72	1562,60
362,93	1554,41
363,15	1427,43
363,37	1578,98
363,59	1505,26
363,81	1523,69
364,02	1613,80
364,24	1544,17
364,46	1587,18
364,68	1507,30
364,90	1705,96
365,11	1566,70
365,33	1646,57
365,55	1562,60
365,77	1566,70
365,99	1470,44
366,20	1675,24
366,42	1621,99
366,64	1533,93
366,86	1521,64
367,07	1562,60
367,29	1452,01
367,51	1486,83
367,73	1531,88
367,95	1540,07
368,16	1527,78
368,38	1556,46
368,60	1585,13
368,82	1529,83
369,03	1638,38
369,25	1570,79
369,47	1544,17
369,69	1538,02
369,91	1617,90
370,12	1566,70
370,34	1474,54
370,56	1529,83
370,78	1552,36
370,99	1601,51
371,21	1587,18
371,43	1525,74
371,65	1488,87
371,86	1490,92
372,08	1607,66
372,30	1560,55
372,52	1605,61
372,73	1605,61
372,95	1581,03
373,17	1548,26
373,39	1527,78
373,60	1548,26
373,82	1599,46
374,04	1517,54
374,26	1544,17
374,47	1542,12
374,69	1529,83
374,91	1624,04
375,12	1589,22
375,34	1609,70
375,56	1607,66
375,78	1544,17
375,99	1492,97
376,21	1644,52
376,43	1585,13
376,65	1593,32
376,86	1552,36
377,08	1443,82
377,30	1624,04
377,51	1591,27
377,73	1476,59
377,95	1525,74
378,17	1544,17
378,38	1468,39
378,60	1611,75
378,82	1708,01
379,03	1562,60
379,25	1587,18
379,47	1646,57
379,68	1521,64
379,90	1497,07
380,12	1589,22
380,34	1525,74
380,55	1499,11
380,77	1621,99
380,99	1550,31
381,20	1538,02
381,42	1617,90
381,64	1484,78
381,85	1523,69
382,07	1658,85
382,29	1568,74
382,50	1552,36
382,72	1546,22
382,94	1574,89
383,15	1581,03
383,37	1568,74
383,59	1597,42
383,80	1546,22
384,02	1597,42
384,24	1589,22
384,45	1585,13
384,67	1638,38
384,89	1495,02
385,10	1562,60
385,32	1542,12
385,54	1554,41
385,75	1542,12
385,97	1591,27
386,19	1624,04
386,40	1640,42
386,62	1570,79
386,84	1515,50
387,05	1564,65
387,27	1552,36
387,49	1552,36
387,70	1589,22
387,92	1525,74
388,14	1472,49
388,35	1521,64
388,57	1480,68
388,79	1656,81
389,00	1513,45
389,22	1513,45
389,43	1517,54
389,65	1624,04
389,87	1578,98
390,08	1501,16
390,30	1527,78
390,52	1578,98
390,73	1513,45
390,95	1470,44
391,17	1511,40
391,38	1527,78
391,60	1652,71
391,81	1581,03
392,03	1488,87
392,25	1466,35
392,46	1511,40
392,68	1628,14
392,89	1605,61
393,11	1456,11
393,33	1581,03
393,54	1544,17
393,76	1630,18
393,98	1632,23
394,19	1513,45
394,41	1548,26
394,62	1394,67
394,84	1581,03
395,06	1511,40
395,27	1544,17
395,49	1470,44
395,70	1615,85
395,92	1431,53
396,13	1556,46
396,35	1533,93
396,57	1562,60
396,78	1527,78
397,00	1486,83
397,21	1636,33
397,43	1644,52
397,65	1581,03
397,86	1581,03
398,08	1617,90
398,29	1597,42
398,51	1464,30
398,72	1566,70
398,94	1654,76
399,16	1546,22
399,37	1548,26
399,59	1591,27
399,80	1546,22
400,02	1523,69
400,23	1581,03
400,45	1556,46
400,67	1646,57
400,88	1488,87
401,10	1552,36
401,31	1515,50
401,53	1499,11
401,74	1548,26
401,96	1560,55
402,17	1603,56
402,39	1574,89
402,61	1525,74
402,82	1513,45
403,04	1656,81
403,25	1497,07
403,47	1587,18
403,68	1456,11
403,90	1642,47
404,11	1441,77
404,33	1472,49
404,54	1572,84
404,76	1527,78
404,97	1560,55
405,19	1572,84
405,41	1538,02
405,62	1640,42
405,84	1523,69
406,05	1564,65
406,27	1468,39
406,48	1578,98
406,70	1540,07
406,91	1552,36
407,13	1544,17
407,34	1564,65
407,56	1628,14
407,77	1601,51
407,99	1546,22
408,20	1701,86
408,42	1548,26
408,63	1548,26
408,85	1533,93
409,06	1507,30
409,28	1601,51
409,49	1490,92
409,71	1570,79
409,92	1566,70
410,14	1517,54
410,35	1644,52
410,57	1550,31
410,78	1474,54
411,00	1566,70
411,21	1597,42
411,43	1550,31
411,64	1548,26
411,86	1607,66
412,07	1667,05
412,29	1525,74
412,50	1517,54
412,72	1587,18
412,93	1679,33
413,15	1587,18
413,36	1581,03
413,58	1650,66
413,79	1570,79
414,01	1542,12
414,22	1581,03
414,43	1656,81
414,65	1621,99
414,86	1533,93
415,08	1531,88
415,29	1560,55
415,51	1495,02
415,72	1609,70
415,94	1544,17
416,15	1615,85
416,37	1644,52
416,58	1492,97
416,80	1529,83
417,01	1576,94
417,22	1476,59
417,44	1615,85
417,65	1624,04
417,87	1538,02
418,08	1691,62
418,30	1449,96
418,51	1605,61
418,73	1570,79
418,94	1523,69
419,15	1544,17
419,37	1656,81
419,58	1478,63
419,80	1572,84
420,01	1576,94
420,23	1601,51
420,44	1550,31
420,65	1683,43
420,87	1701,86
421,08	1566,70
421,30	1603,56
421,51	1449,96
421,73	1552,36
421,94	1490,92
422,15	1578,98
422,37	1562,60
422,58	1462,25
422,80	1478,63
423,01	1490,92
423,22	1482,73
423,44	1447,91
423,65	1601,51
423,87	1540,07
424,08	1550,31
424,29	1525,74
424,51	1517,54
424,72	1517,54
424,94	1484,78
425,15	1533,93
425,36	1611,75
425,58	1576,94
425,79	1619,94
426,01	1621,99
426,22	1603,56
426,43	1619,94
426,65	1509,35
426,86	1576,94
427,08	1546,22
427,29	1441,77
427,50	1519,59
427,72	1513,45
427,93	1540,07
428,14	1511,40
428,36	1566,70
428,57	1458,15
428,79	1515,50
429,00	1527,78
429,21	1523,69
429,43	1585,13
429,64	1560,55
429,85	1490,92
430,07	1617,90
430,28	1521,64
430,49	1484,78
430,71	1527,78
430,92	1542,12
431,14	1538,02
431,35	1507,30
431,56	1646,57
431,78	1484,78
431,99	1595,37
432,20	1544,17
432,42	1431,53
432,63	1544,17
432,84	1513,45
433,06	1517,54
433,27	1531,88
433,48	1601,51
433,70	1490,92
433,91	1617,90
434,12	1572,84
434,34	1576,94
434,55	1624,04
434,76	1556,46
434,98	1552,36
435,19	1474,54
435,40	1497,07
435,62	1572,84
435,83	1540,07
436,04	1591,27
436,26	1648,61
436,47	1484,78
436,68	1488,87
436,90	1593,32
437,11	1576,94
437,32	1456,11
437,54	1548,26
437,75	1507,30
437,96	1603,56
438,17	1585,13
438,39	1531,88
438,60	1660,90
438,81	1585,13
439,03	1603,56
439,24	1593,32
439,45	1615,85
439,67	1544,17
439,88	1609,70
440,09	1556,46
440,30	1599,46
440,52	1480,68
440,73	1492,97
440,94	1499,11
441,16	1560,55
441,37	1595,37
441,58	1523,69
441,80	1509,35
442,01	1484,78
442,22	1525,74
442,43	1523,69
442,65	1673,19
442,86	1615,85
443,07	1576,94
443,28	1476,59
443,50	1562,60
443,71	1603,56
443,92	1474,54
444,14	1593,32
444,35	1562,60
444,56	1513,45
444,77	1484,78
444,99	1560,55
445,20	1562,60
445,41	1548,26
445,62	1540,07
445,84	1578,98
446,05	1556,46
446,26	1695,72
446,47	1572,84
446,69	1525,74
446,90	1533,93
447,11	1587,18
447,32	1550,31
447,54	1499,11
447,75	1527,78
447,96	1507,30
448,17	1495,02
448,39	1544,17
448,60	1449,96
448,81	1636,33
449,02	1642,47
449,23	1505,26
449,45	1519,59
449,66	1603,56
449,87	1566,70
450,08	1595,37
450,30	1583,08
450,51	1527,78
450,72	1517,54
450,93	1529,83
451,15	1578,98
451,36	1583,08
451,57	1540,07
451,78	1499,11
451,99	1609,70
452,21	1486,83
452,42	1585,13
452,63	1597,42
452,84	1562,60
453,05	1466,35
453,27	1480,68
453,48	1607,66
453,69	1452,01
453,90	1574,89
454,11	1583,08
454,33	1540,07
454,54	1517,54
454,75	1544,17
454,96	1544,17
455,17	1468,39
455,39	1558,50
455,60	1468,39
455,81	1535,98
456,02	1593,32
456,23	1589,22
456,45	1552,36
456,66	1556,46
456,87	1505,26
457,08	1583,08
457,29	1595,37
457,50	1445,87
457,72	1603,56
457,93	1562,60
458,14	1529,83
458,35	1609,70
458,56	1501,16
458,77	1540,07
458,99	1568,74
459,20	1611,75
459,41	1521,64
459,62	1564,65
459,83	1585,13
460,04	1486,83
460,26	1484,78
460,47	1509,35
460,68	1576,94
460,89	1554,41
461,10	1669,09
461,31	1630,18
461,52	1529,83
461,74	1613,80
461,95	1560,55
462,16	1554,41
462,37	1576,94
462,58	1589,22
462,79	1615,85
463,00	1593,32
463,22	1632,23
463,43	1560,55
463,64	1589,22
463,85	1533,93
464,06	1585,13
464,27	1505,26
464,48	1562,60
464,70	1507,30
464,91	1572,84
465,12	1564,65
465,33	1589,22
465,54	1722,34
465,75	1546,22
465,96	1593,32
466,17	1531,88
466,38	1556,46
466,60	1556,46
466,81	1544,17
467,02	1572,84
467,23	1597,42
467,44	1554,41
467,65	1535,98
467,86	1650,66
468,07	1589,22
468,28	1650,66
468,50	1576,94
468,71	1667,05
468,92	1564,65
469,13	1597,42
469,34	1578,98
469,55	1554,41
469,76	1478,63
469,97	1564,65
470,18	1546,22
470,39	1558,50
470,60	1578,98
470,82	1597,42
471,03	1525,74
471,24	1550,31
471,45	1517,54
471,66	1556,46
471,87	1540,07
472,08	1525,74
472,29	1503,21
472,50	1558,50
472,71	1482,73
472,92	1550,31
473,13	1550,31
473,34	1677,29
473,55	1501,16
473,77	1671,14
473,98	1503,21
474,19	1589,22
474,40	1478,63
474,61	1540,07
474,82	1515,50
475,03	1515,50
475,24	1533,93
475,45	1660,90
475,66	1538,02
475,87	1517,54
476,08	1634,28
476,29	1632,23
476,50	1593,32
476,71	1626,09
476,92	1529,83
477,13	1544,17
477,34	1523,69
477,55	1626,09
477,76	1546,22
477,97	1564,65
478,18	1515,50
478,40	1499,11
478,61	1583,08
478,82	1468,39
479,03	1591,27
479,24	1538,02
479,45	1492,97
479,66	1611,75
479,87	1597,42
480,08	1419,24
480,29	1513,45
480,50	1624,04
480,71	1490,92
480,92	1531,88
481,13	1470,44
481,34	1533,93
481,55	1501,16
481,76	1439,72
481,97	1576,94
482,18	1605,61
482,39	1492,97
482,60	1560,55
482,81	1519,59
483,02	1544,17
483,23	1628,14
483,44	1538,02
483,65	1523,69
483,86	1562,60
484,07	1636,33
484,28	1535,98
484,49	1591,27
484,70	1593,32
484,91	1531,88
485,12	1497,07
485,33	1509,35
485,54	1646,57
485,75	1566,70
485,96	1572,84
486,17	1533,93
486,38	1548,26
486,59	1636,33
486,80	1597,42
487,01	1488,87
487,21	1484,78
487,42	1535,98
487,63	1574,89
487,84	1478,63
488,05	1548,26
488,26	1701,86
488,47	1525,74
488,68	1466,35
488,89	1621,99
489,10	1474,54
489,31	1529,83
489,52	1589,22
489,73	1542,12
489,94	1744,87
490,15	1507,30
490,36	1656,81
490,57	1564,65
490,78	1538,02
490,99	1583,08
491,20	1501,16
491,41	1560,55
491,61	1728,49
491,82	1619,94
492,03	1562,60
492,24	1587,18
492,45	1601,51
492,66	1574,89
492,87	1564,65
493,08	1562,60
493,29	1499,11
493,50	1456,11
493,71	1529,83
493,92	1576,94
494,13	1572,84
494,34	1495,02
494,54	1527,78
494,75	1529,83
494,96	1642,47
495,17	1603,56
495,38	1468,39
495,59	1445,87
495,80	1566,70
496,01	1656,81
496,22	1630,18
496,43	1527,78
496,64	1583,08
496,84	1542,12
497,05	1492,97
497,26	1662,95
497,47	1523,69
497,68	1550,31
497,89	1499,11
498,10	1611,75
498,31	1650,66
498,52	1595,37
498,72	1585,13
498,93	1617,90
499,14	1546,22
499,35	1527,78
499,56	1538,02
499,77	1511,40
499,98	1544,17
500,19	1562,60
500,40	1546,22
500,60	1531,88
500,81	1667,05
501,02	1488,87
501,23	1499,11
501,44	1533,93
501,65	1513,45
501,86	1540,07
502,06	1517,54
502,27	1513,45
502,48	1601,51
502,69	1615,85
502,90	1669,09
503,11	1474,54
503,32	1605,61
503,53	1546,22
503,73	1542,12
503,94	1554,41
504,15	1542,12
504,36	1540,07
504,57	1488,87
504,78	1476,59
504,98	1615,85
505,19	1470,44
505,40	1548,26
505,61	1488,87
505,82	1544,17
506,03	1609,70
506,23	1517,54
506,44	1591,27
506,65	1578,98
506,86	1515,50
507,07	1476,59
507,28	1490,92
507,48	1568,74
507,69	1535,98
507,90	1556,46
508,11	1484,78
508,32	1611,75
508,53	1513,45
508,73	1458,15
508,94	1490,92
509,15	1525,74
509,36	1554,41
509,57	1509,35
509,77	1589,22
509,98	1480,68
510,19	1533,93
510,40	1595,37
510,61	1533,93
510,81	1605,61
511,02	1611,75
511,23	1556,46
511,44	1458,15
511,65	1490,92
511,85	1550,31
512,06	1519,59
512,27	1527,78
512,48	1513,45
512,69	1572,84
512,89	1546,22
513,10	1576,94
513,31	1597,42
513,52	1544,17
513,73	1538,02
513,93	1505,26
514,14	1574,89
514,35	1562,60
514,56	1564,65
514,76	1554,41
514,97	1601,51
515,18	1630,18
515,39	1558,50
515,60	1527,78
515,80	1687,53
516,01	1599,46
516,22	1587,18
516,43	1523,69
516,63	1501,16
516,84	1673,19
517,05	1599,46
517,26	1535,98
517,46	1609,70
517,67	1697,77
517,88	1570,79
518,09	1472,49
518,29	1546,22
518,50	1671,14
518,71	1513,45
518,92	1683,43
519,12	1572,84
519,33	1560,55
519,54	1591,27
519,75	1621,99
519,95	1593,32
520,16	1597,42
520,37	1456,11
520,57	1556,46
520,78	1671,14
520,99	1597,42
521,20	1585,13
521,40	1523,69
521,61	1544,17
521,82	1548,26
522,03	1546,22
522,23	1513,45
522,44	1529,83
522,65	1517,54
522,85	1452,01
523,06	1429,48
523,27	1593,32
523,48	1583,08
523,68	1525,74
523,89	1566,70
524,10	1572,84
524,30	1449,96
524,51	1550,31
524,72	1566,70
524,93	1476,59
525,13	1519,59
525,34	1576,94
525,55	1566,70
525,75	1552,36
525,96	1566,70
526,17	1605,61
526,37	1617,90
526,58	1529,83
526,79	1540,07
526,99	1454,06
527,20	1564,65
527,41	1566,70
527,62	1509,35
527,82	1517,54
528,03	1456,11
528,24	1585,13
528,44	1615,85
528,65	1505,26
528,86	1533,93
529,06	1503,21
529,27	1462,25
529,48	1421,29
529,68	1673,19
529,89	1566,70
530,10	1638,38
530,30	1499,11
530,51	1546,22
530,72	1558,50
530,92	1509,35
531,13	1480,68
531,34	1529,83
531,54	1554,41
531,75	1560,55
531,96	1667,05
532,16	1523,69
532,37	1585,13
532,57	1538,02
532,78	1505,26
532,99	1521,64
533,19	1568,74
533,40	1630,18
533,61	1531,88
533,81	1546,22
534,02	1529,83
534,23	1472,49
534,43	1564,65
534,64	1583,08
534,84	1554,41
535,05	1515,50
535,26	1564,65
535,46	1624,04
535,67	1587,18
535,88	1497,07
536,08	1564,65
536,29	1521,64
536,49	1554,41
536,70	1570,79
536,91	1447,91
537,11	1525,74
537,32	1519,59
537,53	1611,75
537,73	1671,14
537,94	1486,83
538,14	1589,22
538,35	1527,78
538,56	1552,36
538,76	1597,42
538,97	1650,66
539,17	1599,46
539,38	1736,68
539,59	1556,46
539,79	1550,31
540,00	1550,31
540,20	1564,65
540,41	1558,50
540,62	1787,88
540,82	1476,59
541,03	1566,70
541,23	1546,22
541,44	1552,36
541,64	1548,26
541,85	1540,07
542,06	1671,14
542,26	1478,63
542,47	1517,54
542,67	1521,64
542,88	1593,32
543,08	1607,66
543,29	1597,42
543,50	1578,98
543,70	1656,81
543,91	1626,09
544,11	1591,27
544,32	1621,99
544,52	1630,18
544,73	1521,64
544,94	1535,98
545,14	1576,94
545,35	1527,78
545,55	1624,04
545,76	1607,66
545,96	1503,21
546,17	1517,54
546,37	1523,69
546,58	1589,22
546,78	1568,74
546,99	1538,02
547,20	1568,74
547,40	1519,59
547,61	1578,98
547,81	1587,18
548,02	1589,22
548,22	1542,12
548,43	1665,00
548,63	1587,18
548,84	1603,56
549,04	1527,78
549,25	1470,44
549,45	1560,55
549,66	1499,11
549,86	1529,83
550,07	1501,16
550,27	1521,64
550,48	1591,27
550,69	1626,09
550,89	1685,48
551,10	1546,22
551,30	1667,05
551,51	1560,55
551,71	1595,37
551,92	1650,66
552,12	1533,93
552,33	1499,11
552,53	1419,24
552,74	1581,03
552,94	1574,89
553,15	1466,35
553,35	1560,55
553,56	1490,92
553,76	1583,08
553,97	1562,60
554,17	1445,87
554,38	1634,28
554,58	1617,90
554,79	1507,30
554,99	1517,54
555,19	1437,67
555,40	1646,57
555,60	1531,88
555,81	1527,78
556,01	1605,61
556,22	1554,41
556,42	1486,83
556,63	1513,45
556,83	1628,14
557,04	1533,93
557,24	1658,85
557,45	1529,83
557,65	1550,31
557,86	1531,88
558,06	1542,12
558,27	1521,64
558,47	1511,40
558,67	1578,98
558,88	1509,35
559,08	1464,30
559,29	1476,59
559,49	1630,18
559,70	1511,40
559,90	1482,73
560,11	1495,02
560,31	1538,02
560,52	1566,70
560,72	1488,87
560,92	1593,32
561,13	1564,65
561,33	1531,88
561,54	1529,83
561,74	1626,09
561,95	1531,88
562,15	1597,42
562,35	1503,21
562,56	1601,51
562,76	1427,43
562,97	1654,76
563,17	1613,80
563,38	1634,28
563,58	1572,84
563,78	1628,14
563,99	1478,63
564,19	1501,16
564,40	1591,27
564,60	1515,50
564,80	1521,64
565,01	1492,97
565,21	1583,08
565,42	1621,99
565,62	1521,64
565,83	1572,84
566,03	1603,56
566,23	1646,57
566,44	1576,94
566,64	1492,97
566,85	1538,02
567,05	1521,64
567,25	1468,39
567,46	1589,22
567,66	1556,46
567,86	1695,72
568,07	1499,11
568,27	1658,85
568,48	1447,91
568,68	1576,94
568,88	1435,63
569,09	1533,93
569,29	1570,79
569,50	1525,74
569,70	1513,45
569,90	1605,61
570,11	1505,26
570,31	1572,84
570,51	1597,42
570,72	1570,79
570,92	1611,75
571,13	1656,81
571,33	1445,87
571,53	1552,36
571,74	1546,22
571,94	1605,61
572,14	1531,88
572,35	1454,06
572,55	1583,08
572,75	1548,26
572,96	1589,22
573,16	1601,51
573,36	1492,97
573,57	1574,89
573,77	1511,40
573,97	1538,02
574,18	1527,78
574,38	1574,89
574,59	1644,52
574,79	1544,17
574,99	1568,74
575,20	1591,27
575,40	1538,02
575,60	1572,84
575,81	1654,76
576,01	1482,73
576,21	1542,12
576,42	1585,13
576,62	1478,63
576,82	1621,99
577,02	1593,32
577,23	1509,35
577,43	1576,94
577,63	1515,50
577,84	1499,11
578,04	1476,59
578,24	1495,02
578,45	1472,49
578,65	1478,63
578,85	1529,83
579,06	1654,76
579,26	1591,27
579,46	1601,51
579,67	1544,17
579,87	1599,46
580,07	1626,09
580,27	1558,50
580,48	1613,80
580,68	1578,98
580,88	1673,19
581,09	1535,98
581,29	1597,42
581,49	1628,14
581,69	1558,50
581,90	1548,26
582,10	1531,88
582,30	1624,04
582,51	1677,29
582,71	1562,60
582,91	1589,22
583,11	1587,18
583,32	1578,98
583,52	1515,50
583,72	1484,78
583,93	1617,90
584,13	1574,89
584,33	1583,08
584,53	1619,94
584,74	1595,37
584,94	1470,44
585,14	1529,83
585,34	1583,08
585,55	1529,83
585,75	1646,57
585,95	1480,68
586,15	1501,16
586,36	1578,98
586,56	1656,81
586,76	1585,13
586,96	1521,64
587,17	1538,02
587,37	1609,70
587,57	1621,99
587,77	1640,42
587,98	1646,57
588,18	1585,13
588,38	1603,56
588,58	1642,47
588,79	1679,33
588,99	1564,65
589,19	1630,18
589,39	1591,27
589,60	1640,42
589,80	1652,71
590,00	1644,52
590,20	1656,81
590,40	1558,50
590,61	1640,42
590,81	1667,05
591,01	1595,37
591,21	1638,38
591,42	1660,90
591,62	1611,75
591,82	1562,60
592,02	1630,18
592,22	1697,77
592,43	1607,66
592,63	1650,66
592,83	1656,81
593,03	1679,33
593,23	1626,09
593,44	1646,57
593,64	1523,69
593,84	1630,18
594,04	1656,81
594,24	1660,90
594,45	1654,76
594,65	1525,74
594,85	1642,47
595,05	1572,84
595,25	1652,71
595,46	1667,05
595,66	1638,38
595,86	1638,38
596,06	1578,98
596,26	1658,85
596,46	1613,80
596,67	1626,09
596,87	1607,66
597,07	1552,36
597,27	1505,26
597,47	1605,61
597,67	1732,58
597,88	1613,80
598,08	1644,52
598,28	1671,14
598,48	1597,42
598,68	1677,29
598,88	1789,92
599,09	1716,20
599,29	1634,28
599,49	1638,38
599,69	1736,68
599,89	1763,30
600,09	1685,48
600,30	1683,43
600,50	1738,73
600,70	1660,90
600,90	1740,77
601,10	1748,97
601,30	1718,25
601,50	1740,77
601,71	1826,79
601,91	1796,07
602,11	1712,10
602,31	1691,62
602,51	1744,87
602,71	1689,57
602,91	1673,19
603,11	1714,15
603,32	1839,08
603,52	1710,05
603,72	1751,01
603,92	1800,16
604,12	1710,05
604,32	1703,91
604,52	1841,12
604,72	1783,78
604,93	1757,16
605,13	1781,73
605,33	1769,44
605,53	1740,77
605,73	1714,15
605,93	1904,61
606,13	1761,25
606,33	1855,46
606,53	1771,49
606,74	1806,31
606,94	1814,50
607,14	1839,08
607,34	1796,07
607,54	1699,81
607,74	1814,50
607,94	1746,92
608,14	1980,39
608,34	1794,02
608,54	1927,14
608,74	1853,41
608,95	1787,88
609,15	1894,37
609,35	1806,31
609,55	1945,57
609,75	1884,13
609,95	1941,47
610,15	1898,47
610,35	1902,56
610,55	1906,66
610,75	1933,28
610,95	1877,99
611,15	1927,14
611,35	2027,49
611,55	2009,06
611,76	2060,26
611,96	2011,11
612,16	2000,87
612,36	2152,42
612,56	2054,11
612,76	2031,58
612,96	2113,50
613,16	2027,49
613,36	2050,02
613,56	2068,45
613,76	2076,64
613,96	2156,51
614,16	2037,73
614,36	2009,06
614,56	2107,36
614,76	2174,94
614,96	2217,95
615,16	2148,32
615,36	2084,83
615,56	2209,76
615,76	2170,85
615,97	2156,51
616,17	2136,03
616,37	2265,05
616,57	2191,33
616,77	2195,42
616,97	2293,72
617,17	2289,63
617,37	2326,49
617,57	2144,22
617,77	2336,73
617,97	2369,50
618,17	2232,29
618,37	2373,60
618,57	2437,08
618,77	2422,75
618,97	2478,04
619,17	2435,03
619,37	2424,80
619,57	2455,51
619,77	2500,57
619,97	2502,62
620,17	2545,63
620,37	2555,86
620,57	2432,99
620,77	2586,58
620,97	2549,72
621,17	2625,50
621,37	2572,25
621,57	2621,40
621,77	2607,06
621,97	2699,22
622,17	2625,50
622,37	2754,52
622,57	2768,85
622,77	2676,70
622,97	2748,37
623,17	2713,56
623,37	2881,49
623,57	2856,92
623,77	2703,32
623,97	2766,81
624,16	2789,33
624,36	2762,71
624,56	2807,77
624,76	2883,54
624,96	2852,82
625,16	2887,64
625,36	2924,50
625,56	2850,77
625,76	2899,92
625,96	2908,12
626,16	2955,22
626,36	2955,22
626,56	3026,90
626,76	2936,79
626,96	2930,64
627,16	3002,32
627,36	2850,77
627,56	3059,67
627,76	2973,65
627,96	2850,77
628,16	2981,84
628,35	3037,14
628,55	2852,82
628,75	2994,13
628,95	2832,34
629,15	3055,57
629,35	2803,67
629,55	2916,31
629,75	2820,05
629,95	2873,30
630,15	2869,20
630,35	2826,20
630,55	2856,92
630,75	2770,90
630,95	2926,55
631,14	2736,09
631,34	2684,89
631,54	2719,70
631,74	2688,98
631,94	2715,61
632,14	2623,45
632,34	2709,46
632,54	2580,44
632,74	2449,37
632,94	2654,17
633,14	2641,88
633,33	2545,63
633,53	2553,82
633,73	2619,35
633,93	2484,19
634,13	2424,80
634,33	2416,60
634,53	2398,17
634,73	2424,80
634,93	2242,53
635,12	2318,30
635,32	2455,51
635,52	2279,39
635,72	2265,05
635,92	2191,33
636,12	2330,59
636,32	2195,42
636,52	2248,67
636,71	2179,04
636,91	2308,06
637,11	2201,57
637,31	2117,60
637,51	2060,26
637,71	2285,53
637,91	2037,73
638,11	2074,59
638,30	1953,76
638,50	1918,95
638,70	2164,70
638,90	2068,45
639,10	2002,91
639,30	1937,38
639,50	1925,09
639,69	1953,76
639,89	1906,66
640,09	2004,96
640,29	2007,01
640,49	1961,95
640,69	1886,18
640,88	1931,23
641,08	1886,18
641,28	2033,63
641,48	1894,37
641,68	1828,84
641,88	1947,62
642,07	1720,29
642,27	1892,32
642,47	1771,49
642,67	1841,12
642,87	1777,64
643,07	1855,46
643,26	1814,50
643,46	1826,79
643,66	1748,97
643,86	1755,11
644,06	1683,43
644,26	1763,30
644,45	1742,82
644,65	1775,59
644,85	1730,53
645,05	1775,59
645,25	1738,73
645,44	1755,11
645,64	1665,00
645,84	1705,96
646,04	1624,04
646,24	1718,25
646,43	1773,54
646,63	1699,81
646,83	1658,85
647,03	1746,92
647,23	1621,99
647,42	1695,72
647,62	1781,73
647,82	1644,52
648,02	1566,70
648,22	1710,05
648,41	1609,70
648,61	1607,66
648,81	1732,58
649,01	1646,57
649,20	1720,29
649,40	1572,84
649,60	1761,25
649,80	1613,80
650,00	1656,81
650,19	1621,99
650,39	1601,51
650,59	1697,77
650,79	1578,98
650,98	1503,21
651,18	1628,14
651,38	1636,33
651,58	1646,57
651,77	1505,26
651,97	1650,66
652,17	1574,89
652,37	1642,47
652,56	1486,83
652,76	1554,41
652,96	1605,61
653,16	1634,28
653,35	1574,89
653,55	1626,09
653,75	1542,12
653,95	1697,77
654,14	1601,51
654,34	1570,79
654,54	1568,74
654,74	1583,08
654,93	1581,03
655,13	1535,98
655,33	1572,84
655,52	1597,42
655,72	1689,57
655,92	1546,22
656,12	1636,33
656,31	1552,36
656,51	1525,74
656,71	1558,50
656,91	1490,92
657,10	1558,50
657,30	1521,64
657,50	1544,17
657,69	1628,14
657,89	1501,16
658,09	1617,90
658,29	1656,81
658,48	1667,05
658,68	1558,50
658,88	1619,94
659,07	1521,64
659,27	1558,50
659,47	1513,45
659,66	1644,52
659,86	1544,17
660,06	1544,17
660,26	1558,50
660,45	1628,14
660,65	1617,90
660,85	1583,08
661,04	1548,26
661,24	1615,85
661,44	1466,35
661,63	1515,50
661,83	1601,51
662,03	1558,50
662,22	1675,24
662,42	1544,17
662,62	1535,98
662,81	1452,01
663,01	1576,94
663,21	1599,46
663,40	1509,35
663,60	1642,47
663,80	1501,16
663,99	1558,50
664,19	1576,94
664,39	1621,99
664,58	1607,66
664,78	1517,54
664,98	1495,02
665,17	1542,12
665,37	1525,74
665,57	1609,70
665,76	1589,22
665,96	1544,17
666,16	1517,54
666,35	1605,61
666,55	1619,94
666,74	1617,90
666,94	1654,76
667,14	1542,12
667,33	1585,13
667,53	1507,30
667,73	1515,50
667,92	1574,89
668,12	1527,78
668,32	1624,04
668,51	1499,11
668,71	1552,36
668,90	1531,88
669,10	1576,94
669,30	1619,94
669,49	1540,07
669,69	1619,94
669,89	1527,78
670,08	1544,17
670,28	1837,03
670,47	1570,79
670,67	1648,61
670,87	1529,83
671,06	1724,39
671,26	1574,89
671,45	1574,89
671,65	1535,98
671,85	1570,79
672,04	1611,75
672,24	1476,59
672,43	1525,74
672,63	1673,19
672,83	1492,97
673,02	1548,26
673,22	1521,64
673,41	1574,89
673,61	1454,06
673,81	1484,78
674,00	1628,14
674,20	1589,22
674,39	1484,78
674,59	1492,97
674,78	1558,50
674,98	1656,81
675,18	1638,38
675,37	1517,54
675,57	1503,21
675,76	1591,27
675,96	1527,78
676,15	1574,89
676,35	1511,40
676,55	1460,20
676,74	1542,12
676,94	1460,20
677,13	1558,50
677,33	1583,08
677,52	1585,13
677,72	1464,30
677,91	1464,30
678,11	1527,78
678,31	1538,02
678,50	1566,70
678,70	1527,78
678,89	1560,55
679,09	1533,93
679,28	1556,46
679,48	1562,60
679,67	1591,27
679,87	1472,49
680,06	1763,30
680,26	1558,50
680,46	1599,46
680,65	1533,93
680,85	1550,31
681,04	1562,60
681,24	1558,50
681,43	1548,26
681,63	1554,41
681,82	1540,07
682,02	1511,40
682,21	1591,27
682,41	1583,08
682,60	1599,46
682,80	1634,28
682,99	1572,84
683,19	1558,50
683,38	1566,70
683,58	1585,13
683,77	1576,94
683,97	1593,32
684,16	1624,04
684,36	1509,35
684,55	1540,07
684,75	1470,44
684,94	1552,36
685,14	1609,70
685,33	1495,02
685,53	1535,98
685,72	1564,65
685,92	1556,46
686,11	1564,65
686,31	1542,12
686,50	1636,33
686,70	1601,51
686,89	1548,26
687,09	1538,02
687,28	1585,13
687,48	1523,69
687,67	1626,09
687,87	1554,41
688,06	1476,59
688,26	1540,07
688,45	1521,64
688,65	1542,12
688,84	1552,36
689,03	1499,11
689,23	1538,02
689,42	1648,61
689,62	1634,28
689,81	1581,03
690,01	1550,31
690,20	1611,75
690,40	1642,47
690,59	1734,63
690,79	1421,29
690,98	1578,98
691,17	1560,55
691,37	1642,47
691,56	1505,26
691,76	1656,81
691,95	1619,94
692,15	1460,20
692,34	1562,60
692,54	1587,18
692,73	1533,93
692,92	1626,09
693,12	1542,12
693,31	1505,26
693,51	1585,13
693,70	1517,54
693,90	1619,94
694,09	1540,07
694,28	1472,49
694,48	1576,94
694,67	1570,79
694,87	1638,38
695,06	1615,85
695,26	1554,41
695,45	1546,22
695,64	1599,46
695,84	1542,12
696,03	1497,07
696,23	1621,99
696,42	1556,46
696,61	1527,78
696,81	1513,45
697,00	1497,07
697,20	1587,18
697,39	1503,21
697,58	1476,59
697,78	1581,03
697,97	1503,21
698,17	1535,98
698,36	1511,40
698,55	1419,24
698,75	1669,09
698,94	1570,79
699,14	1474,54
699,33	1460,20
699,52	1583,08
699,72	1585,13
699,91	1511,40
700,10	1542,12
700,30	1501,16
700,49	1546,22
700,69	1529,83
700,88	1533,93
701,07	1533,93
701,27	1552,36
701,46	1636,33
701,65	1523,69
701,85	1556,46
702,04	1646,57
702,23	1507,30
702,43	1511,40
702,62	1576,94
702,82	1501,16
703,01	1652,71
703,20	1578,98
703,40	1587,18
703,59	1578,98
703,78	1599,46
703,98	1587,18
704,17	1538,02
704,36	1613,80
704,56	1587,18
704,75	1488,87
704,94	1576,94
705,14	1667,05
705,33	1595,37
705,52	1578,98
705,72	1525,74
705,91	1527,78
706,10	1519,59
706,30	1535,98
706,49	1531,88
706,68	1548,26
706,88	1490,92
707,07	1531,88
707,26	1562,60
707,46	1642,47
707,65	1621,99
707,84	1521,64
708,04	1466,35
708,23	1617,90
708,42	1535,98
708,62	1587,18
708,81	1492,97
709,00	1626,09
709,19	1519,59
709,39	1548,26
709,58	1587,18
709,77	1517,54
709,97	1621,99
710,16	1562,60
710,35	1613,80
710,55	1581,03
710,74	1585,13
710,93	1484,78
711,12	1581,03
711,32	1511,40
711,51	1675,24
711,70	1452,01
711,90	1511,40
712,09	1423,34
712,28	1581,03
712,47	1540,07
712,67	1564,65
712,86	1540,07
713,05	1578,98
713,24	1544,17
713,44	1552,36
713,63	1538,02
713,82	1544,17
714,02	1611,75
714,21	1615,85
714,40	1599,46
714,59	1576,94
714,79	1456,11
714,98	1552,36
715,17	1667,05
715,36	1564,65
715,56	1546,22
715,75	1570,79
715,94	1517,54
716,13	1558,50
716,33	1650,66
716,52	1607,66
716,71	1548,26
716,90	1609,70
717,10	1499,11
717,29	1538,02
717,48	1601,51
717,67	1591,27
717,87	1495,02
718,06	1581,03
718,25	1611,75
718,44	1576,94
718,63	1601,51
718,83	1466,35
719,02	1513,45
719,21	1626,09
719,40	1454,06
719,60	1505,26
719,79	1507,30
719,98	1566,70
720,17	1523,69
720,36	1613,80
720,56	1611,75
720,75	1484,78
720,94	1632,23
721,13	1562,60
721,33	1554,41
721,52	1492,97
721,71	1636,33
721,90	1646,57
722,09	1605,61
722,29	1589,22
722,48	1466,35
722,67	1507,30
722,86	1673,19
723,05	1513,45
723,24	1632,23
723,44	1527,78
723,63	1550,31
723,82	1513,45
724,01	1568,74
724,20	1599,46
724,40	1607,66
724,59	1589,22
724,78	1433,58
724,97	1558,50
725,16	1511,40
725,35	1630,18
725,55	1636,33
725,74	1540,07
725,93	1636,33
726,12	1583,08
726,31	1613,80
726,51	1533,93
726,70	1529,83
726,89	1513,45
727,08	1515,50
727,27	1535,98
727,46	1585,13
727,65	1595,37
727,85	1486,83
728,04	1480,68
728,23	1521,64
728,42	1611,75
728,61	1619,94
728,80	1525,74
729,00	1615,85
729,19	1581,03
729,38	1634,28
729,57	1492,97
729,76	1511,40
729,95	1615,85
730,14	1581,03
730,33	1519,59
730,53	1509,35
730,72	1578,98
730,91	1495,02
731,10	1521,64
731,29	1716,20
731,48	1593,32
731,67	1447,91
731,86	1572,84
732,06	1621,99
732,25	1460,20
732,44	1542,12
732,63	1538,02
732,82	1628,14
733,01	1593,32
733,20	1460,20
733,39	1544,17
733,59	1490,92
733,78	1574,89
733,97	1626,09
734,16	1591,27
734,35	1601,51
734,54	1583,08
734,73	1533,93
734,92	1554,41
735,11	1464,30
735,30	1499,11
735,49	1556,46
735,69	1689,57
735,88	1560,55
736,07	1597,42
736,26	1540,07
736,45	1578,98
736,64	1441,77
736,83	1544,17
737,02	1630,18
737,21	1556,46
737,40	1460,20
737,59	1716,20
737,78	1527,78
737,98	1527,78
738,17	1505,26
738,36	1621,99
738,55	1544,17
738,74	1578,98
738,93	1523,69
739,12	1452,01
739,31	1501,16
739,50	1519,59
739,69	1662,95
739,88	1556,46
740,07	1570,79
740,26	1574,89
740,45	1624,04
740,64	1578,98
740,83	1544,17
741,02	1505,26
741,22	1578,98
741,41	1548,26
741,60	1648,61
741,79	1538,02
741,98	1595,37
742,17	1513,45
742,36	1630,18
742,55	1476,59
742,74	1722,34
742,93	1572,84
743,12	1591,27
743,31	1499,11
743,50	1589,22
743,69	1585,13
743,88	1497,07
744,07	1527,78
744,26	1632,23
744,45	1548,26
744,64	1613,80
744,83	1540,07
745,02	1587,18
745,21	1550,31
745,40	1529,83
745,59	1611,75
745,78	1503,21
745,97	1548,26
746,16	1558,50
746,35	1630,18
746,54	1517,54
746,73	1484,78
746,92	1572,84
747,11	1499,11
747,30	1542,12
747,49	1501,16
747,68	1599,46
747,87	1441,77
748,06	1638,38
748,25	1544,17
748,44	1583,08
748,63	1626,09
748,82	1564,65
749,01	1548,26
749,20	1525,74
749,39	1466,35
749,58	1601,51
749,77	1595,37
749,96	1484,78
750,15	1517,54
750,34	1525,74
750,53	1589,22
750,72	1574,89
750,91	1495,02
751,10	1650,66
751,29	1578,98
751,48	1478,63
751,67	1546,22
751,86	1538,02
752,04	1554,41
752,23	1599,46
752,42	1564,65
752,61	1576,94
752,80	1550,31
752,99	1568,74
753,18	1581,03
753,37	1404,91
753,56	1499,11
753,75	1572,84
753,94	1519,59
754,13	1591,27
754,32	1566,70
754,51	1505,26
754,70	1613,80
754,89	1572,84
755,08	1587,18
755,27	1513,45
755,45	1597,42
755,64	1576,94
755,83	1535,98
756,02	1574,89
756,21	1546,22
756,40	1566,70
756,59	1513,45
756,78	1585,13
756,97	1566,70
757,16	1525,74
757,35	1646,57
757,54	1519,59
757,72	1642,47
757,91	1452,01
758,10	1574,89
758,29	1511,40
758,48	1609,70
758,67	1566,70
758,86	1583,08
759,05	1476,59
759,24	1533,93
759,43	1525,74
759,61	1447,91
759,80	1488,87
759,99	1515,50
760,18	1591,27
760,37	1585,13
760,56	1503,21
760,75	1640,42
760,94	1525,74
761,13	1568,74
761,31	1591,27
761,50	1480,68
761,69	1511,40
761,88	1464,30
762,07	1482,73
762,26	1531,88
762,45	1566,70
762,64	1542,12
762,82	1482,73
763,01	1583,08
763,20	1552,36
763,39	1517,54
763,58	1525,74
763,77	1511,40
763,96	1558,50
764,14	1558,50
764,33	1583,08
764,52	1556,46
764,71	1578,98
764,90	1535,98
765,09	1554,41
765,27	1525,74
765,46	1554,41
765,65	1470,44
765,84	1544,17
766,03	1570,79
766,22	1552,36
766,41	1509,35
766,59	1529,83
766,78	1638,38
766,97	1511,40
767,16	1560,55
767,35	1517,54
767,54	1636,33
767,72	1531,88
767,91	1599,46
768,10	1521,64
768,29	1517,54
768,48	1535,98
768,66	1521,64
768,85	1546,22
769,04	1546,22
769,23	1535,98
769,42	1611,75
769,61	1556,46
769,79	1544,17
769,98	1599,46
770,17	1497,07
770,36	1611,75
770,55	1523,69
770,73	1607,66
770,92	1562,60
771,11	1552,36
771,30	1490,92
771,49	1521,64
771,67	1671,14
771,86	1591,27
772,05	1437,67
772,24	1517,54
772,42	1538,02
772,61	1574,89
772,80	1505,26
772,99	1460,20
773,18	1533,93
773,36	1525,74
773,55	1468,39
773,74	1566,70
773,93	1568,74
774,11	1507,30
774,30	1658,85
774,49	1482,73
774,68	1617,90
774,87	1447,91
775,05	1413,10
775,24	1499,11
775,43	1589,22
775,62	1546,22
775,80	1621,99
775,99	1570,79
776,18	1679,33
776,37	1495,02
776,55	1507,30
776,74	1517,54
776,93	1556,46
777,12	1581,03
777,30	1558,50
777,49	1435,63
777,68	1611,75
777,87	1470,44
778,05	1585,13
778,24	1531,88
778,43	1503,21
778,62	1429,48
778,80	1564,65
778,99	1583,08
779,18	1564,65
779,36	1585,13
779,55	1538,02
779,74	1525,74
779,93	1656,81
780,11	1605,61
780,30	1511,40
780,49	1552,36
780,68	1583,08
780,86	1607,66
781,05	1636,33
781,24	1652,71
781,42	1597,42
781,61	1562,60
781,80	1392,62
781,98	1546,22
782,17	1566,70
782,36	1497,07
782,55	1544,17
782,73	1478,63
782,92	1771,49
783,11	1568,74
783,29	1593,32
783,48	1601,51
783,67	1570,79
783,85	1578,98
784,04	1605,61
784,23	1632,23
784,42	1519,59
784,60	1583,08
784,79	1689,57
784,98	1642,47
785,16	1615,85
785,35	1492,97
785,54	1685,48
785,72	1642,47
785,91	1515,50
786,10	1542,12
786,28	1517,54
786,47	1581,03
786,66	1509,35
786,84	1681,38
787,03	1642,47
787,22	1556,46
787,40	1538,02
787,59	1654,76
787,78	1617,90
787,96	1513,45
788,15	1517,54
788,34	1525,74
788,52	1609,70
788,71	1630,18
788,89	1572,84
789,08	1560,55
789,27	1626,09
789,45	1578,98
789,64	1523,69
789,83	1540,07
790,01	1478,63
790,20	1611,75
790,39	1589,22
790,57	1521,64
790,76	1560,55
790,95	1501,16
791,13	1621,99
791,32	1527,78
791,50	1705,96
791,69	1544,17
791,88	1585,13
792,06	1667,05
792,25	1587,18
792,43	1560,55
792,62	1564,65
792,81	1507,30
792,99	1535,98
793,18	1521,64
793,37	1605,61
793,55	1542,12
793,74	1482,73
793,92	1589,22
794,11	1564,65
794,30	1456,11
794,48	1585,13
794,67	1509,35
794,85	1527,78
795,04	1546,22
795,23	1589,22
795,41	1466,35
795,60	1603,56
795,78	1572,84
795,97	1652,71
796,15	1669,09
796,34	1638,38
796,53	1599,46
796,71	1642,47
796,90	1642,47
797,08	1470,44
797,27	1621,99
797,46	1564,65
797,64	1570,79
797,83	1595,37
798,01	1566,70
798,20	1597,42
798,38	1523,69
798,57	1507,30
798,76	1521,64
798,94	1482,73
799,13	1607,66
799,31	1601,51
799,50	1544,17
799,68	1519,59
799,87	1466,35
800,05	1558,50
800,24	1505,26
800,43	1429,48
800,61	1708,01
800,80	1581,03
800,98	1523,69
801,17	1527,78
801,35	1511,40
801,54	1550,31
801,72	1507,30
801,91	1533,93
802,09	1486,83
802,28	1603,56
802,46	1574,89
802,65	1513,45
802,84	1556,46
803,02	1572,84
803,21	1488,87
803,39	1484,78
803,58	1568,74
803,76	1642,47
803,95	1628,14
804,13	1439,72
804,32	1558,50
804,50	1609,70
804,69	1589,22
804,87	1492,97
805,06	1636,33
805,24	1626,09
805,43	1546,22
805,61	1595,37
805,80	1568,74
805,98	1619,94
806,17	1490,92
806,35	1482,73
806,54	1529,83
806,72	1488,87
806,91	1509,35
807,09	1615,85
807,28	1468,39
807,46	1556,46
807,65	1611,75
807,83	1495,02
808,02	1445,87
808,20	1585,13
808,39	1525,74
808,57	1548,26
808,76	1554,41
808,94	1605,61
809,13	1538,02
809,31	1550,31
809,49	1654,76
809,68	1497,07
809,86	1501,16
810,05	1591,27
810,23	1660,90
810,42	1552,36
810,60	1587,18
810,79	1533,93
810,97	1454,06
811,16	1529,83
811,34	1585,13
811,53	1576,94
811,71	1550,31
811,89	1568,74
812,08	1564,65
812,26	1556,46
812,45	1554,41
812,63	1486,83
812,82	1583,08
813,00	1456,11
813,19	1529,83
813,37	1589,22
813,55	1535,98
813,74	1581,03
813,92	1599,46
814,11	1576,94
814,29	1515,50
814,48	1525,74
814,66	1599,46
814,84	1556,46
815,03	1501,16
815,21	1650,66
815,40	1607,66
815,58	1527,78
815,77	1599,46
815,95	1509,35
816,13	1585,13
816,32	1617,90
816,50	1593,32
816,69	1630,18
816,87	1513,45
817,05	1527,78
817,24	1626,09
817,42	1566,70
817,61	1589,22
817,79	1646,57
817,97	1613,80
818,16	1507,30
818,34	1605,61
818,53	1484,78
818,71	1619,94
818,89	1533,93
819,08	1568,74
819,26	1458,15
819,45	1566,70
819,63	1564,65
819,81	1495,02
820,00	1769,44
820,18	1519,59
820,36	1550,31
820,55	1589,22
820,73	1464,30
820,92	1521,64
821,10	1529,83
821,28	1529,83
821,47	1638,38
821,65	1595,37
821,83	1671,14
822,02	1509,35
822,20	1523,69
822,39	1458,15
822,57	1456,11
822,75	1497,07
822,94	1492,97
823,12	1515,50
823,30	1503,21
823,49	1695,72
823,67	1589,22
823,85	1581,03
824,04	1531,88
824,22	1503,21
824,40	1595,37
824,59	1492,97
824,77	1550,31
824,95	1535,98
825,14	1576,94
825,32	1531,88
825,50	1544,17
825,69	1583,08
825,87	1710,05
826,05	1525,74
826,24	1605,61
826,42	1640,42
826,60	1638,38
826,79	1484,78
826,97	1499,11
827,15	1558,50
827,34	1574,89
827,52	1476,59
827,70	1568,74
827,89	1564,65
828,07	1546,22
828,25	1558,50
828,44	1542,12
828,62	1525,74
828,80	1632,23
828,98	1552,36
829,17	1531,88
829,35	1576,94
829,53	1601,51
829,72	1679,33
829,90	1480,68
830,08	1533,93
830,27	1658,85
830,45	1609,70
830,63	1599,46
830,81	1462,25
831,00	1521,64
831,18	1445,87
831,36	1550,31
831,55	1507,30
831,73	1474,54
831,91	1511,40
832,09	1601,51
832,28	1583,08
832,46	1568,74
832,64	1607,66
832,82	1495,02
833,01	1552,36
833,19	1593,32
833,37	1492,97
833,55	1585,13
833,74	1503,21
833,92	1468,39
834,10	1482,73
834,29	1529,83
834,47	1529,83
834,65	1533,93
834,83	1472,49
835,02	1464,30
835,20	1595,37
835,38	1466,35
835,56	1535,98
835,75	1574,89
835,93	1570,79
836,11	1542,12
836,29	1439,72
836,47	1540,07
836,66	1497,07
836,84	1660,90
837,02	1568,74
837,20	1572,84
837,39	1591,27
837,57	1509,35
837,75	1519,59
837,93	1501,16
838,12	1454,06
838,30	1550,31
838,48	1583,08
838,66	1658,85
838,84	1511,40
839,03	1628,14
839,21	1542,12
839,39	1562,60
839,57	1574,89
839,75	1556,46
839,94	1503,21
840,12	1556,46
840,30	1462,25
840,48	1593,32
840,66	1538,02
840,85	1525,74
841,03	1480,68
841,21	1566,70
841,39	1611,75
841,57	1535,98
841,76	1624,04
841,94	1621,99
842,12	1548,26
842,30	1511,40
842,48	1609,70
842,67	1548,26
842,85	1529,83
843,03	1583,08
843,21	1546,22
843,39	1638,38
843,57	1449,96
843,76	1507,30
843,94	1476,59
844,12	1566,70
844,30	1402,86
844,48	1533,93
844,66	1578,98
844,85	1646,57
845,03	1605,61
845,21	1595,37
845,39	1566,70
845,57	1583,08
845,75	1462,25
845,94	1609,70
846,12	1572,84
846,30	1533,93
846,48	1505,26
846,66	1499,11
846,84	1501,16
847,02	1445,87
847,21	1560,55
847,39	1482,73
847,57	1605,61
847,75	1501,16
847,93	1460,20
848,11	1519,59
848,29	1443,82
848,48	1490,92
848,66	1521,64
848,84	1646,57
849,02	1527,78
849,20	1449,96
849,38	1611,75
849,56	1599,46
849,74	1611,75
849,93	1611,75
850,11	1462,25
850,29	1533,93
850,47	1576,94
850,65	1501,16
850,83	1419,24
851,01	1515,50
851,19	1617,90
851,37	1531,88
851,56	1501,16
851,74	1585,13
851,92	1423,34
852,10	1503,21
852,28	1529,83
852,46	1511,40
852,64	1605,61
852,82	1468,39
853,00	1552,36
853,18	1558,50
853,37	1552,36
853,55	1538,02
853,73	1542,12
853,91	1568,74
854,09	1568,74
854,27	1568,74
854,45	1554,41
854,63	1562,60
854,81	1542,12
854,99	1570,79
855,17	1505,26
855,35	1472,49
855,53	1587,18
855,72	1548,26
855,90	1589,22
856,08	1593,32
856,26	1517,54
856,44	1677,29
856,62	1466,35
856,80	1509,35
856,98	1515,50
857,16	1548,26
857,34	1523,69
857,52	1523,69
857,70	1581,03
857,88	1515,50
858,06	1566,70
858,24	1550,31
858,42	1667,05
858,60	1554,41
858,78	1521,64
858,96	1507,30
859,15	1566,70
859,33	1609,70
859,51	1525,74
859,69	1558,50
859,87	1460,20
860,05	1581,03
860,23	1648,61
860,41	1574,89
860,59	1570,79
860,77	1570,79
860,95	1597,42
861,13	1568,74
861,31	1523,69
861,49	1548,26
861,67	1607,66
861,85	1621,99
862,03	1554,41
862,21	1492,97
862,39	1599,46
862,57	1544,17
862,75	1484,78
862,93	1544,17
863,11	1583,08
863,29	1462,25
863,47	1535,98
863,65	1599,46
863,83	1503,21
864,01	1546,22
864,19	1519,59
864,37	1497,07
864,55	1564,65
864,73	1624,04
864,91	1542,12
865,09	1669,09
865,27	1542,12
865,45	1505,26
865,63	1587,18
865,81	1535,98
865,99	1544,17
866,17	1488,87
866,35	1503,21
866,53	1630,18
866,71	1474,54
866,89	1595,37
867,07	1472,49
867,24	1533,93
867,42	1550,31
867,60	1560,55
867,78	1617,90
867,96	1476,59
868,14	1603,56
868,32	1605,61
868,50	1587,18
868,68	1578,98
868,86	1595,37
869,04	1570,79
869,22	1544,17
869,40	1490,92
869,58	1535,98
869,76	1531,88
869,94	1509,35
870,12	1556,46
870,30	1550,31
870,48	1593,32
870,66	1525,74
870,83	1562,60
871,01	1601,51
871,19	1452,01
871,37	1458,15
871,55	1449,96
871,73	1556,46
871,91	1607,66
872,09	1525,74
872,27	1517,54
872,45	1484,78
872,63	1503,21
872,81	1499,11
872,98	1550,31
873,16	1576,94
873,34	1581,03
873,52	1591,27
873,70	1468,39
873,88	1548,26
874,06	1423,34
874,24	1517,54
874,42	1427,43
874,60	1523,69
874,78	1546,22
874,95	1523,69
875,13	1505,26
875,31	1456,11
875,49	1601,51
875,67	1519,59
875,85	1492,97
876,03	1531,88
876,21	1564,65
876,39	1499,11
876,56	1583,08
876,74	1501,16
876,92	1581,03
877,10	1591,27
877,28	1464,30
877,46	1525,74
877,64	1533,93
877,82	1607,66
877,99	1431,53
878,17	1581,03
878,35	1554,41
878,53	1587,18
878,71	1499,11
878,89	1535,98
879,07	1587,18
879,24	1521,64
879,42	1619,94
879,60	1505,26
879,78	1562,60
879,96	1529,83
880,14	1656,81
880,32	1464,30
880,49	1474,54
880,67	1589,22
880,85	1597,42
881,03	1480,68
881,21	1595,37
881,39	1501,16
881,56	1546,22
881,74	1503,21
881,92	1570,79
882,10	1591,27
882,28	1548,26
882,46	1525,74
882,63	1501,16
882,81	1492,97
882,99	1456,11
883,17	1466,35
883,35	1556,46
883,52	1599,46
883,70	1585,13
883,88	1472,49
884,06	1638,38
884,24	1570,79
884,42	1652,71
884,59	1607,66
884,77	1605,61
884,95	1572,84
885,13	1540,07
885,31	1566,70
885,48	1519,59
885,66	1632,23
885,84	1535,98
886,02	1556,46
886,20	1644,52
886,37	1558,50
886,55	1615,85
886,73	1587,18
886,91	1513,45
887,08	1546,22
887,26	1605,61
887,44	1531,88
887,62	1452,01
887,80	1613,80
887,97	1544,17
888,15	1652,71
888,33	1572,84
888,51	1595,37
888,68	1540,07
888,86	1535,98
889,04	1497,07
889,22	1624,04
889,40	1484,78
889,57	1566,70
889,75	1570,79
889,93	1591,27
890,11	1585,13
890,28	1603,56
890,46	1550,31
890,64	1578,98
890,82	1621,99
890,99	1578,98
891,17	1435,63
891,35	1587,18
891,53	1525,74
891,70	1466,35
891,88	1466,35
892,06	1509,35
892,24	1445,87
892,41	1529,83
892,59	1503,21
892,77	1519,59
892,94	1499,11
893,12	1464,30
893,30	1433,58
893,48	1591,27
893,65	1589,22
893,83	1511,40
894,01	1521,64
894,19	1486,83
894,36	1646,57
894,54	1482,73
894,72	1552,36
894,89	1544,17
895,07	1535,98
895,25	1554,41
895,43	1431,53
895,60	1554,41
895,78	1566,70
895,96	1615,85
896,13	1609,70
896,31	1632,23
896,49	1552,36
896,66	1435,63
896,84	1656,81
897,02	1613,80
897,20	1509,35
897,37	1515,50
897,55	1517,54
897,73	1656,81
897,90	1624,04
898,08	1538,02
898,26	1599,46
898,43	1578,98
898,61	1652,71
898,79	1482,73
898,96	1535,98
899,14	1499,11
899,32	1544,17
899,49	1492,97
899,67	1593,32
899,85	1675,24
900,02	1585,13
900,20	1546,22
900,38	1574,89
900,55	1617,90
900,73	1681,38
900,91	1470,44
901,08	1554,41
901,26	1552,36
901,44	1554,41
901,61	1554,41
901,79	1538,02
901,97	1554,41
902,14	1515,50
902,32	1611,75
902,50	1509,35
902,67	1556,46
902,85	1564,65
903,02	1560,55
903,20	1560,55
903,38	1568,74
903,55	1527,78
903,73	1523,69
903,91	1642,47
904,08	1601,51
904,26	1609,70
904,44	1638,38
904,61	1492,97
904,79	1509,35
904,96	1546,22
905,14	1535,98
905,32	1589,22
905,49	1593,32
905,67	1484,78
905,84	1482,73
906,02	1597,42
906,20	1480,68
906,37	1683,43
906,55	1558,50
906,73	1515,50
906,90	1515,50
907,08	1570,79
907,25	1511,40
907,43	1640,42
907,61	1464,30
907,78	1507,30
907,96	1513,45
908,13	1572,84
908,31	1601,51
908,48	1503,21
908,66	1552,36
908,84	1603,56
909,01	1576,94
909,19	1595,37
909,36	1552,36
909,54	1462,25
909,72	1488,87
909,89	1470,44
910,07	1490,92
910,24	1560,55
910,42	1621,99
910,59	1484,78
910,77	1507,30
910,95	1519,59
911,12	1495,02
911,30	1472,49
911,47	1533,93
911,65	1583,08
911,82	1558,50
912,00	1634,28
912,17	1564,65
912,35	1501,16
912,53	1603,56
912,70	1595,37
912,88	1527,78
913,05	1542,12
913,23	1527,78
913,40	1554,41
913,58	1519,59
913,75	1529,83
913,93	1546,22
914,10	1466,35
914,28	1564,65
914,46	1499,11
914,63	1497,07
914,81	1558,50
914,98	1517,54
915,16	1513,45
915,33	1499,11
915,51	1589,22
915,68	1548,26
915,86	1535,98
916,03	1476,59
916,21	1482,73
916,38	1521,64
916,56	1538,02
916,73	1599,46
916,91	1564,65
917,08	1507,30
917,26	1564,65
917,43	1513,45
917,61	1497,07
917,78	1605,61
917,96	1495,02
918,13	1523,69
918,31	1558,50
918,48	1415,15
918,66	1507,30
918,83	1652,71
919,01	1591,27
919,18	1554,41
919,36	1490,92
919,53	1556,46
919,71	1634,28
919,88	1626,09
920,06	1529,83
920,23	1460,20
920,41	1542,12
920,58	1546,22
920,76	1517,54
920,93	1595,37
921,11	1513,45
921,28	1517,54
921,45	1572,84
921,63	1505,26
921,80	1529,83
921,98	1503,21
922,15	1492,97
922,33	1560,55
922,50	1609,70
922,68	1538,02
922,85	1548,26
923,03	1548,26
923,20	1560,55
923,38	1564,65
923,55	1597,42
923,72	1560,55
923,90	1687,53
924,07	1501,16
924,25	1605,61
924,42	1665,00
924,60	1492,97
924,77	1509,35
924,95	1589,22
925,12	1591,27
925,29	1662,95
925,47	1527,78
925,64	1437,67
925,82	1527,78
925,99	1556,46
926,17	1613,80
926,34	1542,12
926,51	1521,64
926,69	1593,32
926,86	1576,94
927,04	1523,69
927,21	1607,66
927,38	1499,11
927,56	1585,13
927,73	1581,03
927,91	1576,94
928,08	1734,63
928,25	1607,66
928,43	1515,50
928,60	1419,24
928,78	1574,89
928,95	1558,50
929,12	1570,79
929,30	1564,65
929,47	1531,88
929,65	1466,35
929,82	1425,39
929,99	1605,61
930,17	1441,77
930,34	1605,61
930,52	1540,07
930,69	1595,37
930,86	1576,94
931,04	1456,11
931,21	1466,35
931,38	1576,94
931,56	1578,98
931,73	1683,43
931,91	1538,02
932,08	1597,42
932,25	1654,76
932,43	1542,12
932,60	1587,18
932,77	1617,90
932,95	1527,78
933,12	1597,42
933,29	1533,93
933,47	1652,71
933,64	1464,30
933,82	1601,51
933,99	1572,84
934,16	1535,98
934,34	1593,32
934,51	1613,80
934,68	1593,32
934,86	1714,15
935,03	1456,11
935,20	1468,39
935,38	1513,45
935,55	1558,50
935,72	1550,31
935,90	1449,96
936,07	1576,94
936,24	1466,35
936,42	1681,38
936,59	1519,59
936,76	1609,70
936,94	1478,63
937,11	1548,26
937,28	1497,07
937,46	1562,60
937,63	1523,69
937,80	1540,07
937,97	1636,33
938,15	1529,83
938,32	1503,21
938,49	1576,94
938,67	1599,46
938,84	1660,90
939,01	1517,54
939,19	1499,11
939,36	1646,57
939,53	1613,80
939,70	1540,07
939,88	1542,12
940,05	1562,60
940,22	1538,02
940,40	1615,85
940,57	1527,78
940,74	1562,60
940,92	1572,84
941,09	1566,70
941,26	1501,16
941,43	1591,27
941,61	1578,98
941,78	1499,11
941,95	1609,70
942,12	1464,30
942,30	1554,41
942,47	1570,79
942,64	1538,02
942,82	1609,70
942,99	1621,99
943,16	1499,11
943,33	1630,18
943,51	1552,36
943,68	1599,46
943,85	1527,78
944,02	1564,65
944,20	1591,27
944,37	1521,64
944,54	1544,17
944,71	1556,46
944,89	1542,12
945,06	1480,68
945,23	1589,22
945,40	1585,13
945,58	1609,70
945,75	1538,02
945,92	1648,61
946,09	1609,70
946,27	1525,74
946,44	1452,01
946,61	1662,95
946,78	1486,83
946,95	1480,68
947,13	1517,54
947,30	1597,42
947,47	1499,11
947,64	1583,08
947,82	1490,92
947,99	1523,69
948,16	1574,89
948,33	1585,13
948,50	1560,55
948,68	1581,03
948,85	1601,51
949,02	1550,31
949,19	1628,14
949,36	1570,79
949,54	1548,26
949,71	1683,43
949,88	1441,77
950,05	1517,54
950,22	1570,79
950,40	1525,74
950,57	1472,49
950,74	1677,29
950,91	1603,56
951,08	1519,59
951,26	1519,59
951,43	1550,31
951,60	1531,88
951,77	1568,74
951,94	1675,24
952,11	1576,94
952,29	1644,52
952,46	1392,62
952,63	1640,42
952,80	1574,89
952,97	1589,22
953,15	1603,56
953,32	1556,46
953,49	1492,97
953,66	1511,40
953,83	1464,30
954,00	1552,36
954,17	1476,59
954,35	1677,29
954,52	1515,50
954,69	1581,03
954,86	1630,18
955,03	1544,17
955,20	1531,88
955,38	1482,73
955,55	1517,54
955,72	1605,61
955,89	1490,92
956,06	1546,22
956,23	1570,79
956,40	1556,46
956,58	1499,11
956,75	1527,78
956,92	1492,97
957,09	1495,02
957,26	1566,70
957,43	1517,54
957,60	1581,03
957,77	1505,26
957,95	1572,84
958,12	1564,65
958,29	1593,32
958,46	1640,42
958,63	1558,50
958,80	1570,79
958,97	1595,37
959,14	1552,36
959,31	1619,94
959,49	1589,22
959,66	1513,45
959,83	1529,83
960,00	1515,50
960,17	1578,98
960,34	1591,27
960,51	1566,70
960,68	1642,47
960,85	1527,78
961,02	1478,63
961,20	1642,47
961,37	1560,55
961,54	1566,70
961,71	1542,12
961,88	1540,07
962,05	1458,15
962,22	1615,85
962,39	1574,89
962,56	1478,63
962,73	1492,97
962,90	1509,35
963,07	1630,18
963,24	1566,70
963,42	1499,11
963,59	1609,70
963,76	1607,66
963,93	1701,86
964,10	1554,41
964,27	1611,75
964,44	1581,03
964,61	1611,75
964,78	1544,17
964,95	1574,89
965,12	1550,31
965,29	1601,51
965,46	1437,67
965,63	1621,99
965,80	1583,08
965,97	1523,69
966,14	1554,41
966,31	1550,31
966,48	1587,18
966,66	1654,76
966,83	1544,17
967,00	1585,13
967,17	1515,50
967,34	1574,89
967,51	1609,70
967,68	1587,18
967,85	1507,30
968,02	1613,80
968,19	1476,59
968,36	1566,70
968,53	1523,69
968,70	1562,60
968,87	1507,30
969,04	1615,85
969,21	1597,42
969,38	1669,09
969,55	1527,78
969,72	1546,22
969,89	1550,31
970,06	1601,51
970,23	1521,64
970,40	1472,49
970,57	1486,83
970,74	1542,12
970,91	1482,73
971,08	1552,36
971,25	1519,59
971,42	1619,94
971,59	1527,78
971,76	1576,94
971,93	1501,16
972,10	1472,49
972,27	1519,59
972,44	1511,40
972,61	1556,46
972,78	1535,98
972,95	1517,54
973,12	1576,94
973,29	1605,61
973,46	1568,74
973,63	1611,75
973,80	1628,14
973,97	1497,07
974,14	1621,99
974,30	1564,65
974,47	1562,60
974,64	1589,22
974,81	1507,30
974,98	1658,85
975,15	1628,14
975,32	1544,17
975,49	1480,68
975,66	1535,98
975,83	1605,61
976,00	1621,99
976,17	1540,07
976,34	1540,07
976,51	1480,68
976,68	1568,74
976,85	1538,02
977,02	1529,83
977,19	1548,26
977,36	1501,16
977,52	1583,08
977,69	1619,94
977,86	1675,24
978,03	1482,73
978,20	1560,55
978,37	1585,13
978,54	1679,33
978,71	1626,09
978,88	1615,85
979,05	1480,68
979,22	1638,38
979,39	1562,60
979,56	1492,97
979,72	1447,91
979,89	1593,32
980,06	1593,32
980,23	1712,10
980,40	1501,16
980,57	1613,80
980,74	1593,32
980,91	1486,83
981,08	1593,32
981,25	1554,41
981,41	1552,36
981,58	1523,69
981,75	1484,78
981,92	1589,22
982,09	1501,16
982,26	1478,63
982,43	1470,44
982,60	1605,61
982,77	1589,22
982,93	1509,35
983,10	1529,83
983,27	1523,69
983,44	1486,83
983,61	1589,22
983,78	1552,36
983,95	1533,93
984,11	1472,49
984,28	1593,32
984,45	1505,26
984,62	1484,78
984,79	1589,22
984,96	1646,57
985,13	1538,02
985,30	1593,32
985,46	1468,39
985,63	1503,21
985,80	1613,80
985,97	1525,74
986,14	1507,30
986,31	1603,56
986,47	1546,22
986,64	1495,02
986,81	1527,78
986,98	1474,54
987,15	1515,50
987,32	1548,26
987,48	1513,45
987,65	1587,18
987,82	1478,63
987,99	1593,32
988,16	1984,48
988,33	1712,10
988,49	1564,65
988,66	1589,22
988,83	1503,21
989,00	1628,14
989,17	1456,11
989,34	1597,42
989,50	1597,42
989,67	1525,74
989,84	1474,54
990,01	1501,16
990,18	1568,74
990,34	1544,17
990,51	1511,40
990,68	1507,30
990,85	1642,47
991,02	1566,70
991,18	1531,88
991,35	1497,07
991,52	1591,27
991,69	1527,78
991,86	1583,08
992,02	1527,78
992,19	1398,76
992,36	1519,59
992,53	1576,94
992,69	1531,88
992,86	1527,78
993,03	1583,08
993,20	1409,00
993,37	1603,56
993,53	1566,70
993,70	1521,64
993,87	1533,93
994,04	1546,22
994,20	1466,35
994,37	1619,94
994,54	1583,08
994,71	1513,45
994,87	1609,70
995,04	1603,56
995,21	1609,70
995,38	1566,70
995,55	1454,06
995,71	1468,39
995,88	1576,94
996,05	1560,55
996,22	1628,14
996,38	1552,36
996,55	1554,41
996,72	1538,02
996,88	1648,61
997,05	2594,78
997,22	1474,54
997,39	1515,50
997,55	1599,46
997,72	1617,90
997,89	1535,98
998,06	1478,63
998,22	1576,94
998,39	1492,97
998,56	1570,79
998,73	1474,54
998,89	1593,32
999,06	1476,59
999,23	1517,54
999,39	1521,64
999,56	1589,22
999,73	1568,74
999,90	1470,44
1000,06	1564,65
1000,23	1585,13
1000,40	1613,80
1000,56	1636,33
1000,73	1511,40
1000,90	1533,93
1001,06	1533,93
1001,23	1523,69
1001,40	1581,03
1001,57	1525,74
1001,73	1507,30
1001,90	1486,83
1002,07	1505,26
1002,23	1581,03
1002,40	1527,78
1002,57	1531,88
1002,73	1546,22
1002,90	1509,35
1003,07	1669,09
1003,23	1474,54
1003,40	1505,26
1003,57	1460,20
1003,73	1499,11
1003,90	1552,36
1004,07	1583,08
1004,23	1431,53
1004,40	1558,50
1004,57	1523,69
1004,73	1433,58
1004,90	1562,60
1005,07	1540,07
1005,23	1538,02
1005,40	1521,64
1005,57	1523,69
1005,73	1607,66
1005,90	1544,17
1006,07	1646,57
1006,23	1615,85
1006,40	1533,93
1006,57	1531,88
1006,73	1540,07
1006,90	1564,65
1007,06	1507,30
1007,23	1495,02
1007,40	1540,07
1007,56	1564,65
1007,73	1499,11
1007,90	1544,17
1008,06	1605,61
1008,23	1597,42
1008,40	1630,18
1008,56	1574,89
1008,73	1554,41
1008,89	1572,84
1009,06	1701,86
1009,23	1501,16
1009,39	1531,88
1009,56	1540,07
1009,72	1591,27
1009,89	1533,93
1010,06	1540,07
1010,22	1468,39
1010,39	1509,35
1010,55	1558,50
1010,72	1564,65
1010,89	1474,54
1011,05	1630,18
1011,22	1562,60
1011,38	1578,98
1011,55	1568,74
1011,72	1556,46
1011,88	1554,41
1012,05	1581,03
1012,21	1535,98
1012,38	1519,59
1012,55	1603,56
1012,71	1376,24
1012,88	1523,69
1013,04	1542,12
1013,21	1488,87
1013,37	1591,27
1013,54	1542,12
1013,71	1607,66
1013,87	1513,45
1014,04	1640,42
1014,20	1601,51
1014,37	1562,60
1014,53	1558,50
1014,70	1531,88
1014,87	1507,30
1015,03	1669,09
1015,20	1501,16
1015,36	1595,37
1015,53	1576,94
1015,69	1568,74
1015,86	1593,32
1016,02	1540,07
1016,19	1556,46
1016,36	1490,92
1016,52	1554,41
1016,69	1601,51
1016,85	1574,89
1017,02	1550,31
1017,18	1505,26
1017,35	1501,16
1017,51	1484,78
1017,68	1525,74
1017,84	1495,02
1018,01	1382,38
1018,17	1538,02
1018,34	1736,68
1018,50	1548,26
1018,67	1527,78
1018,84	1576,94
1019,00	1511,40
1019,17	1523,69
1019,33	1560,55
1019,50	1681,38
1019,66	1695,72
1019,83	1517,54
1019,99	1613,80
1020,16	1452,01
1020,32	1464,30
1020,49	1578,98
1020,65	1560,55
1020,82	1552,36
1020,98	1591,27
1021,15	1513,45
1021,31	1646,57
1021,48	1503,21
1021,64	1507,30
1021,81	1515,50
1021,97	1501,16
1022,14	1527,78
1022,30	1564,65
1022,47	1505,26
1022,63	1585,13
1022,79	1587,18
1022,96	1542,12
1023,12	1538,02
1023,29	1540,07
1023,45	1648,61
1023,62	1544,17
1023,78	1544,17
1023,95	1519,59
1024,11	1515,50
1024,28	1443,82
1024,44	1581,03
1024,61	1484,78
1024,77	1605,61
1024,94	1578,98
1025,10	1507,30
1025,26	1511,40
1025,43	1568,74
1025,59	1576,94
1025,76	1513,45
1025,92	1449,96
1026,09	1564,65
1026,25	1648,61
1026,42	1576,94
1026,58	1460,20
1026,74	1581,03
1026,91	1585,13
1027,07	1556,46
1027,24	1613,80
1027,40	1544,17
1027,57	1519,59
1027,73	1554,41
1027,90	1583,08
1028,06	1501,16
1028,22	1546,22
1028,39	1558,50
1028,55	1544,17
1028,72	1591,27
1028,88	1691,62
1029,04	1525,74
1029,21	1630,18
1029,37	1542,12
1029,54	1552,36
1029,70	1570,79
1029,87	1435,63
1030,03	1554,41
1030,19	1656,81
1030,36	1540,07
1030,52	1501,16
1030,69	1540,07
1030,85	1515,50
1031,01	1533,93
1031,18	1589,22
1031,34	1544,17
1031,50	1562,60
1031,67	1644,52
1031,83	1621,99
1032,00	1605,61
1032,16	1533,93
1032,32	1513,45
1032,49	1634,28
1032,65	1558,50
1032,82	1560,55
1032,98	1558,50
1033,14	1509,35
1033,31	1611,75
1033,47	1644,52
1033,63	1540,07
1033,80	1486,83
1033,96	1578,98
1034,13	1595,37
1034,29	1607,66
1034,45	1570,79
1034,62	1499,11
1034,78	1593,32
1034,94	1490,92
1035,11	1630,18
1035,27	1488,87
1035,43	1550,31
1035,60	1638,38
1035,76	1531,88
1035,92	1495,02
1036,09	1540,07
1036,25	1572,84
1036,41	1562,60
1036,58	1558,50
1036,74	1632,23
1036,90	1472,49
1037,07	1523,69
1037,23	1568,74
1037,39	1658,85
1037,56	1507,30
1037,72	1636,33
1037,88	1552,36
1038,05	1556,46
1038,21	1546,22
1038,37	1505,26
1038,54	1513,45
1038,70	1601,51
1038,86	1533,93
1039,03	1529,83
1039,19	1540,07
1039,35	1527,78
1039,52	1531,88
1039,68	1503,21
1039,84	1482,73
1040,00	1542,12
1040,17	1515,50
1040,33	1492,97
1040,49	1515,50
1040,66	1568,74
1040,82	1540,07
1040,98	1535,98
1041,15	1583,08
1041,31	1552,36
1041,47	1583,08
1041,63	1564,65
1041,80	1576,94
1041,96	1626,09
1042,12	1523,69
1042,29	1527,78
1042,45	1611,75
1042,61	1449,96
1042,77	1529,83
1042,94	1585,13
1043,10	1722,34
1043,26	1548,26
1043,42	1507,30
1043,59	1548,26
1043,75	1605,61
1043,91	1589,22
1044,07	1439,72
1044,24	1501,16
1044,40	1548,26
>>>>>End Processed Spectral Data<<<<<
