SpectraSuite Data File
++++++++++++++++++++++++++++++++++++
Date: Wed Sep 25 10:32:30 GMT-03:00 2024
User: Lavfis
Dark Spectrum Present: No
Reference Spectrum Present: No
Number of Sampled Component Spectra: 1
Spectrometers: USB4F02573
Integration Time (usec): 100000 (USB4F02573)
Spectra Averaged: 1 (USB4F02573)
Boxcar Smoothing: 0 (USB4F02573)
Correct for Electrical Dark: No (USB4F02573)
Strobe/Lamp Enabled: No (USB4F02573)
Correct for Detector Non-linearity: No (USB4F02573)
Correct for Stray Light: No (USB4F02573)
Number of Pixels in Processed Spectrum: 3648
>>>>>Begin Processed Spectral Data<<<<<
345,22	1384,43
345,44	1384,43
345,66	1384,43
345,88	1392,62
346,10	1363,95
346,32	1548,26
346,54	1644,52
346,75	1566,70
346,97	1533,93
347,19	1585,13
347,41	1583,08
347,63	1478,63
347,85	1519,59
348,07	1513,45
348,29	1607,66
348,51	1495,02
348,73	1583,08
348,95	1478,63
349,16	1535,98
349,38	1570,79
349,60	1576,94
349,82	1564,65
350,04	1519,59
350,26	1597,42
350,48	1621,99
350,70	1609,70
350,92	1548,26
351,14	1621,99
351,35	1587,18
351,57	1603,56
351,79	1583,08
352,01	1505,26
352,23	1495,02
352,45	1640,42
352,67	1556,46
352,89	1546,22
353,10	1587,18
353,32	1540,07
353,54	1619,94
353,76	1630,18
353,98	1601,51
354,20	1550,31
354,42	1578,98
354,64	1603,56
354,85	1601,51
355,07	1499,11
355,29	1533,93
355,51	1499,11
355,73	1595,37
355,95	1437,67
356,17	1669,09
356,38	1533,93
356,60	1611,75
356,82	1566,70
357,04	1529,83
357,26	1560,55
357,48	1648,61
357,69	1601,51
357,91	1492,97
358,13	1562,60
358,35	1591,27
358,57	1591,27
358,79	1564,65
359,01	1560,55
359,22	1587,18
359,44	1601,51
359,66	1548,26
359,88	1456,11
360,10	1535,98
360,32	1517,54
360,53	1507,30
360,75	1576,94
360,97	1558,50
361,19	1640,42
361,41	1691,62
361,62	1556,46
361,84	1626,09
362,06	1470,44
362,28	1554,41
362,50	1652,71
362,72	1589,22
362,93	1515,50
363,15	1509,35
363,37	1601,51
363,59	1509,35
363,81	1517,54
364,02	1630,18
364,24	1499,11
364,46	1644,52
364,68	1490,92
364,90	1720,29
365,11	1578,98
365,33	1603,56
365,55	1562,60
365,77	1587,18
365,99	1452,01
366,20	1705,96
366,42	1554,41
366,64	1548,26
366,86	1576,94
367,07	1576,94
367,29	1490,92
367,51	1566,70
367,73	1505,26
367,95	1646,57
368,16	1595,37
368,38	1681,38
368,60	1535,98
368,82	1546,22
369,03	1660,90
369,25	1585,13
369,47	1490,92
369,69	1558,50
369,91	1601,51
370,12	1540,07
370,34	1560,55
370,56	1452,01
370,78	1687,53
370,99	1626,09
371,21	1564,65
371,43	1513,45
371,65	1476,59
371,86	1533,93
372,08	1601,51
372,30	1544,17
372,52	1527,78
372,73	1546,22
372,95	1544,17
373,17	1472,49
373,39	1544,17
373,60	1540,07
373,82	1578,98
374,04	1466,35
374,26	1538,02
374,47	1603,56
374,69	1527,78
374,91	1656,81
375,12	1593,32
375,34	1628,14
375,56	1519,59
375,78	1624,04
375,99	1468,39
376,21	1605,61
376,43	1533,93
376,65	1550,31
376,86	1531,88
377,08	1474,54
377,30	1589,22
377,51	1558,50
377,73	1476,59
377,95	1566,70
378,17	1595,37
378,38	1499,11
378,60	1572,84
378,82	1658,85
379,03	1593,32
379,25	1591,27
379,47	1705,96
379,68	1503,21
379,90	1490,92
380,12	1513,45
380,34	1529,83
380,55	1568,74
380,77	1583,08
380,99	1570,79
381,20	1556,46
381,42	1495,02
381,64	1531,88
381,85	1544,17
382,07	1652,71
382,29	1525,74
382,50	1593,32
382,72	1609,70
382,94	1460,20
383,15	1581,03
383,37	1525,74
383,59	1566,70
383,80	1531,88
384,02	1611,75
384,24	1556,46
384,45	1767,40
384,67	1624,04
384,89	1501,16
385,10	1517,54
385,32	1558,50
385,54	1507,30
385,75	1578,98
385,97	1613,80
386,19	1591,27
386,40	1595,37
386,62	1474,54
386,84	1601,51
387,05	1564,65
387,27	1488,87
387,49	1482,73
387,70	1517,54
387,92	1609,70
388,14	1435,63
388,35	1492,97
388,57	1554,41
388,79	1558,50
389,00	1478,63
389,22	1484,78
389,43	1546,22
389,65	1599,46
389,87	1554,41
390,08	1544,17
390,30	1550,31
390,52	1679,33
390,73	1566,70
390,95	1501,16
391,17	1574,89
391,38	1619,94
391,60	1619,94
391,81	1574,89
392,03	1626,09
392,25	1538,02
392,46	1517,54
392,68	1648,61
392,89	1533,93
393,11	1474,54
393,33	1564,65
393,54	1578,98
393,76	1527,78
393,98	1609,70
394,19	1544,17
394,41	1525,74
394,62	1400,81
394,84	1556,46
395,06	1445,87
395,27	1513,45
395,49	1540,07
395,70	1630,18
395,92	1427,43
396,13	1468,39
396,35	1593,32
396,57	1562,60
396,78	1466,35
397,00	1531,88
397,21	1630,18
397,43	1572,84
397,65	1499,11
397,86	1593,32
398,08	1538,02
398,29	1566,70
398,51	1435,63
398,72	1654,76
398,94	1642,47
399,16	1662,95
399,37	1587,18
399,59	1681,38
399,80	1519,59
400,02	1548,26
400,23	1538,02
400,45	1533,93
400,67	1628,14
400,88	1576,94
401,10	1488,87
401,31	1535,98
401,53	1591,27
401,74	1531,88
401,96	1570,79
402,17	1531,88
402,39	1527,78
402,61	1548,26
402,82	1626,09
403,04	1548,26
403,25	1599,46
403,47	1529,83
403,68	1595,37
403,90	1624,04
404,11	1490,92
404,33	1476,59
404,54	1591,27
404,76	1495,02
404,97	1531,88
405,19	1632,23
405,41	1542,12
405,62	1548,26
405,84	1517,54
406,05	1646,57
406,27	1488,87
406,48	1658,85
406,70	1486,83
406,91	1542,12
407,13	1544,17
407,34	1501,16
407,56	1640,42
407,77	1556,46
407,99	1527,78
408,20	1640,42
408,42	1560,55
408,63	1589,22
408,85	1521,64
409,06	1599,46
409,28	1687,53
409,49	1480,68
409,71	1564,65
409,92	1566,70
410,14	1562,60
410,35	1714,15
410,57	1630,18
410,78	1480,68
411,00	1523,69
411,21	1603,56
411,43	1583,08
411,64	1568,74
411,86	1546,22
412,07	1624,04
412,29	1533,93
412,50	1576,94
412,72	1636,33
412,93	1689,57
413,15	1662,95
413,36	1529,83
413,58	1611,75
413,79	1572,84
414,01	1609,70
414,22	1607,66
414,43	1538,02
414,65	1484,78
414,86	1566,70
415,08	1550,31
415,29	1538,02
415,51	1484,78
415,72	1556,46
415,94	1544,17
416,15	1558,50
416,37	1662,95
416,58	1464,30
416,80	1542,12
417,01	1552,36
417,22	1562,60
417,44	1515,50
417,65	1568,74
417,87	1578,98
418,08	1724,39
418,30	1484,78
418,51	1615,85
418,73	1535,98
418,94	1525,74
419,15	1542,12
419,37	1576,94
419,58	1472,49
419,80	1533,93
420,01	1597,42
420,23	1562,60
420,44	1587,18
420,65	1515,50
420,87	1597,42
421,08	1583,08
421,30	1654,76
421,51	1540,07
421,73	1533,93
421,94	1560,55
422,15	1515,50
422,37	1566,70
422,58	1443,82
422,80	1535,98
423,01	1542,12
423,22	1429,48
423,44	1427,43
423,65	1525,74
423,87	1423,34
424,08	1611,75
424,29	1546,22
424,51	1505,26
424,72	1548,26
424,94	1511,40
425,15	1511,40
425,36	1613,80
425,58	1525,74
425,79	1607,66
426,01	1605,61
426,22	1566,70
426,43	1585,13
426,65	1482,73
426,86	1566,70
427,08	1617,90
427,29	1535,98
427,50	1484,78
427,72	1556,46
427,93	1517,54
428,14	1505,26
428,36	1519,59
428,57	1603,56
428,79	1611,75
429,00	1613,80
429,21	1599,46
429,43	1636,33
429,64	1538,02
429,85	1499,11
430,07	1593,32
430,28	1527,78
430,49	1484,78
430,71	1523,69
430,92	1515,50
431,14	1515,50
431,35	1517,54
431,56	1529,83
431,78	1554,41
431,99	1599,46
432,20	1517,54
432,42	1525,74
432,63	1509,35
432,84	1527,78
433,06	1550,31
433,27	1599,46
433,48	1564,65
433,70	1562,60
433,91	1654,76
434,12	1511,40
434,34	1605,61
434,55	1654,76
434,76	1630,18
434,98	1587,18
435,19	1531,88
435,40	1507,30
435,62	1599,46
435,83	1619,94
436,04	1593,32
436,26	1619,94
436,47	1517,54
436,68	1486,83
436,90	1501,16
437,11	1636,33
437,32	1556,46
437,54	1640,42
437,75	1464,30
437,96	1564,65
438,17	1636,33
438,39	1570,79
438,60	1591,27
438,81	1542,12
439,03	1605,61
439,24	1558,50
439,45	1716,20
439,67	1482,73
439,88	1644,52
440,09	1585,13
440,30	1675,24
440,52	1548,26
440,73	1503,21
440,94	1525,74
441,16	1548,26
441,37	1595,37
441,58	1488,87
441,80	1550,31
442,01	1509,35
442,22	1515,50
442,43	1570,79
442,65	1703,91
442,86	1630,18
443,07	1521,64
443,28	1464,30
443,50	1540,07
443,71	1603,56
443,92	1478,63
444,14	1480,68
444,35	1552,36
444,56	1556,46
444,77	1464,30
444,99	1556,46
445,20	1486,83
445,41	1591,27
445,62	1552,36
445,84	1621,99
446,05	1576,94
446,26	1658,85
446,47	1634,28
446,69	1564,65
446,90	1570,79
447,11	1658,85
447,32	1527,78
447,54	1501,16
447,75	1570,79
447,96	1519,59
448,17	1562,60
448,39	1540,07
448,60	1523,69
448,81	1617,90
449,02	1609,70
449,23	1578,98
449,45	1568,74
449,66	1540,07
449,87	1531,88
450,08	1474,54
450,30	1560,55
450,51	1538,02
450,72	1624,04
450,93	1564,65
451,15	1607,66
451,36	1572,84
451,57	1578,98
451,78	1562,60
451,99	1603,56
452,21	1548,26
452,42	1558,50
452,63	1574,89
452,84	1523,69
453,05	1521,64
453,27	1462,25
453,48	1689,57
453,69	1437,67
453,90	1660,90
454,11	1601,51
454,33	1533,93
454,54	1538,02
454,75	1523,69
454,96	1507,30
455,17	1554,41
455,39	1560,55
455,60	1507,30
455,81	1548,26
456,02	1624,04
456,23	1585,13
456,45	1570,79
456,66	1624,04
456,87	1542,12
457,08	1597,42
457,29	1695,72
457,50	1492,97
457,72	1552,36
457,93	1556,46
458,14	1540,07
458,35	1578,98
458,56	1630,18
458,77	1472,49
458,99	1572,84
459,20	1568,74
459,41	1507,30
459,62	1538,02
459,83	1564,65
460,04	1544,17
460,26	1585,13
460,47	1568,74
460,68	1544,17
460,89	1558,50
461,10	1626,09
461,31	1621,99
461,52	1499,11
461,74	1585,13
461,95	1531,88
462,16	1511,40
462,37	1568,74
462,58	1589,22
462,79	1613,80
463,00	1480,68
463,22	1677,29
463,43	1566,70
463,64	1585,13
463,85	1538,02
464,06	1630,18
464,27	1572,84
464,48	1517,54
464,70	1552,36
464,91	1560,55
465,12	1529,83
465,33	1548,26
465,54	1621,99
465,75	1626,09
465,96	1583,08
466,17	1562,60
466,38	1556,46
466,60	1540,07
466,81	1578,98
467,02	1597,42
467,23	1595,37
467,44	1624,04
467,65	1540,07
467,86	1615,85
468,07	1556,46
468,28	1599,46
468,50	1507,30
468,71	1646,57
468,92	1632,23
469,13	1558,50
469,34	1472,49
469,55	1531,88
469,76	1552,36
469,97	1593,32
470,18	1519,59
470,39	1595,37
470,60	1587,18
470,82	1603,56
471,03	1523,69
471,24	1562,60
471,45	1581,03
471,66	1527,78
471,87	1538,02
472,08	1581,03
472,29	1525,74
472,50	1546,22
472,71	1501,16
472,92	1621,99
473,13	1515,50
473,34	1630,18
473,55	1505,26
473,77	1538,02
473,98	1578,98
474,19	1595,37
474,40	1439,72
474,61	1581,03
474,82	1521,64
475,03	1474,54
475,24	1433,58
475,45	1644,52
475,66	1611,75
475,87	1550,31
476,08	1587,18
476,29	1583,08
476,50	1617,90
476,71	1597,42
476,92	1589,22
477,13	1593,32
477,34	1566,70
477,55	1603,56
477,76	1636,33
477,97	1488,87
478,18	1460,20
478,40	1490,92
478,61	1519,59
478,82	1499,11
479,03	1546,22
479,24	1564,65
479,45	1568,74
479,66	1621,99
479,87	1578,98
480,08	1449,96
480,29	1533,93
480,50	1589,22
480,71	1556,46
480,92	1560,55
481,13	1505,26
481,34	1554,41
481,55	1413,10
481,76	1560,55
481,97	1605,61
482,18	1613,80
482,39	1484,78
482,60	1513,45
482,81	1558,50
483,02	1554,41
483,23	1624,04
483,44	1556,46
483,65	1570,79
483,86	1578,98
484,07	1576,94
484,28	1605,61
484,49	1576,94
484,70	1560,55
484,91	1495,02
485,12	1572,84
485,33	1503,21
485,54	1632,23
485,75	1523,69
485,96	1564,65
486,17	1568,74
486,38	1558,50
486,59	1599,46
486,80	1564,65
487,01	1529,83
487,21	1499,11
487,42	1445,87
487,63	1660,90
487,84	1519,59
488,05	1443,82
488,26	1746,92
488,47	1503,21
488,68	1495,02
488,89	1646,57
489,10	1523,69
489,31	1591,27
489,52	1474,54
489,73	1552,36
489,94	1740,77
490,15	1531,88
490,36	1546,22
490,57	1591,27
490,78	1478,63
490,99	1558,50
491,20	1574,89
491,41	1626,09
491,61	1677,29
491,82	1611,75
492,03	1585,13
492,24	1611,75
492,45	1509,35
492,66	1527,78
492,87	1540,07
493,08	1599,46
493,29	1431,53
493,50	1443,82
493,71	1540,07
493,92	1626,09
494,13	1617,90
494,34	1458,15
494,54	1560,55
494,75	1554,41
494,96	1570,79
495,17	1628,14
495,38	1511,40
495,59	1484,78
495,80	1607,66
496,01	1587,18
496,22	1558,50
496,43	1505,26
496,64	1554,41
496,84	1437,67
497,05	1535,98
497,26	1679,33
497,47	1523,69
497,68	1595,37
497,89	1497,07
498,10	1578,98
498,31	1644,52
498,52	1714,15
498,72	1540,07
498,93	1597,42
499,14	1501,16
499,35	1535,98
499,56	1517,54
499,77	1576,94
499,98	1540,07
500,19	1554,41
500,40	1595,37
500,60	1505,26
500,81	1669,09
501,02	1519,59
501,23	1552,36
501,44	1525,74
501,65	1503,21
501,86	1550,31
502,06	1523,69
502,27	1525,74
502,48	1558,50
502,69	1621,99
502,90	1699,81
503,11	1499,11
503,32	1519,59
503,53	1556,46
503,73	1591,27
503,94	1574,89
504,15	1634,28
504,36	1578,98
504,57	1480,68
504,78	1523,69
504,98	1546,22
505,19	1564,65
505,40	1533,93
505,61	1548,26
505,82	1468,39
506,03	1640,42
506,23	1558,50
506,44	1583,08
506,65	1621,99
506,86	1538,02
507,07	1542,12
507,28	1548,26
507,48	1636,33
507,69	1574,89
507,90	1531,88
508,11	1474,54
508,32	1546,22
508,53	1542,12
508,73	1458,15
508,94	1540,07
509,15	1636,33
509,36	1472,49
509,57	1470,44
509,77	1513,45
509,98	1478,63
510,19	1572,84
510,40	1611,75
510,61	1570,79
510,81	1591,27
511,02	1613,80
511,23	1591,27
511,44	1521,64
511,65	1495,02
511,85	1593,32
512,06	1519,59
512,27	1527,78
512,48	1570,79
512,69	1589,22
512,89	1568,74
513,10	1601,51
513,31	1572,84
513,52	1578,98
513,73	1572,84
513,93	1558,50
514,14	1634,28
514,35	1560,55
514,56	1613,80
514,76	1581,03
514,97	1632,23
515,18	1626,09
515,39	1574,89
515,60	1593,32
515,80	1587,18
516,01	1560,55
516,22	1605,61
516,43	1499,11
516,63	1626,09
516,84	1566,70
517,05	1609,70
517,26	1531,88
517,46	1626,09
517,67	1552,36
517,88	1603,56
518,09	1503,21
518,29	1492,97
518,50	1626,09
518,71	1566,70
518,92	1650,66
519,12	1581,03
519,33	1642,47
519,54	1488,87
519,75	1564,65
519,95	1511,40
520,16	1542,12
520,37	1525,74
520,57	1578,98
520,78	1701,86
520,99	1519,59
521,20	1609,70
521,40	1447,91
521,61	1644,52
521,82	1521,64
522,03	1515,50
522,23	1550,31
522,44	1482,73
522,65	1548,26
522,85	1548,26
523,06	1497,07
523,27	1589,22
523,48	1662,95
523,68	1501,16
523,89	1609,70
524,10	1546,22
524,30	1519,59
524,51	1525,74
524,72	1544,17
524,93	1517,54
525,13	1507,30
525,34	1619,94
525,55	1564,65
525,75	1615,85
525,96	1599,46
526,17	1507,30
526,37	1621,99
526,58	1578,98
526,79	1572,84
526,99	1499,11
527,20	1570,79
527,41	1570,79
527,62	1525,74
527,82	1535,98
528,03	1574,89
528,24	1509,35
528,44	1615,85
528,65	1482,73
528,86	1452,01
529,06	1523,69
529,27	1458,15
529,48	1511,40
529,68	1665,00
529,89	1644,52
530,10	1603,56
530,30	1560,55
530,51	1492,97
530,72	1507,30
530,92	1533,93
531,13	1525,74
531,34	1554,41
531,54	1548,26
531,75	1601,51
531,96	1609,70
532,16	1560,55
532,37	1564,65
532,57	1583,08
532,78	1558,50
532,99	1540,07
533,19	1605,61
533,40	1648,61
533,61	1572,84
533,81	1556,46
534,02	1583,08
534,23	1472,49
534,43	1533,93
534,64	1646,57
534,84	1597,42
535,05	1636,33
535,26	1501,16
535,46	1613,80
535,67	1589,22
535,88	1484,78
536,08	1478,63
536,29	1601,51
536,49	1578,98
536,70	1564,65
536,91	1452,01
537,11	1538,02
537,32	1566,70
537,53	1572,84
537,73	1648,61
537,94	1486,83
538,14	1544,17
538,35	1529,83
538,56	1533,93
538,76	1507,30
538,97	1497,07
539,17	1521,64
539,38	1593,32
539,59	1597,42
539,79	1619,94
540,00	1560,55
540,20	1546,22
540,41	1591,27
540,62	1605,61
540,82	1613,80
541,03	1576,94
541,23	1576,94
541,44	1449,96
541,64	1621,99
541,85	1595,37
542,06	1583,08
542,26	1507,30
542,47	1452,01
542,67	1556,46
542,88	1578,98
543,08	1634,28
543,29	1544,17
543,50	1609,70
543,70	1630,18
543,91	1599,46
544,11	1560,55
544,32	1665,00
544,52	1628,14
544,73	1515,50
544,94	1570,79
545,14	1507,30
545,35	1501,16
545,55	1552,36
545,76	1630,18
545,96	1560,55
546,17	1515,50
546,37	1601,51
546,58	1599,46
546,78	1480,68
546,99	1482,73
547,20	1607,66
547,40	1619,94
547,61	1576,94
547,81	1562,60
548,02	1560,55
548,22	1581,03
548,43	1695,72
548,63	1523,69
548,84	1621,99
549,04	1538,02
549,25	1470,44
549,45	1454,06
549,66	1431,53
549,86	1572,84
550,07	1503,21
550,27	1562,60
550,48	1556,46
550,69	1572,84
550,89	1570,79
551,10	1433,58
551,30	1611,75
551,51	1540,07
551,71	1603,56
551,92	1621,99
552,12	1544,17
552,33	1507,30
552,53	1423,34
552,74	1576,94
552,94	1593,32
553,15	1441,77
553,35	1624,04
553,56	1544,17
553,76	1570,79
553,97	1615,85
554,17	1570,79
554,38	1572,84
554,58	1621,99
554,79	1462,25
554,99	1449,96
555,19	1511,40
555,40	1558,50
555,60	1568,74
555,81	1452,01
556,01	1576,94
556,22	1576,94
556,42	1513,45
556,63	1548,26
556,83	1587,18
557,04	1556,46
557,24	1597,42
557,45	1495,02
557,65	1533,93
557,86	1548,26
558,06	1607,66
558,27	1505,26
558,47	1509,35
558,67	1632,23
558,88	1435,63
559,08	1535,98
559,29	1492,97
559,49	1644,52
559,70	1531,88
559,90	1466,35
560,11	1544,17
560,31	1511,40
560,52	1550,31
560,72	1544,17
560,92	1581,03
561,13	1589,22
561,33	1531,88
561,54	1572,84
561,74	1576,94
561,95	1535,98
562,15	1654,76
562,35	1568,74
562,56	1499,11
562,76	1449,96
562,97	1562,60
563,17	1597,42
563,38	1564,65
563,58	1566,70
563,78	1527,78
563,99	1527,78
564,19	1413,10
564,40	1542,12
564,60	1646,57
564,80	1513,45
565,01	1400,81
565,21	1572,84
565,42	1716,20
565,62	1499,11
565,83	1511,40
566,03	1556,46
566,23	1572,84
566,44	1652,71
566,64	1480,68
566,85	1474,54
567,05	1572,84
567,25	1515,50
567,46	1624,04
567,66	1576,94
567,86	1603,56
568,07	1531,88
568,27	1585,13
568,48	1513,45
568,68	1562,60
568,88	1538,02
569,09	1603,56
569,29	1542,12
569,50	1497,07
569,70	1564,65
569,90	1591,27
570,11	1523,69
570,31	1546,22
570,51	1560,55
570,72	1533,93
570,92	1576,94
571,13	1548,26
571,33	1474,54
571,53	1576,94
571,74	1570,79
571,94	1599,46
572,14	1550,31
572,35	1476,59
572,55	1562,60
572,75	1597,42
572,96	1638,38
573,16	1634,28
573,36	1599,46
573,57	1593,32
573,77	1535,98
573,97	1529,83
574,18	1443,82
574,38	1621,99
574,59	1671,14
574,79	1531,88
574,99	1595,37
575,20	1548,26
575,40	1519,59
575,60	1601,51
575,81	1665,00
576,01	1519,59
576,21	1535,98
576,42	1546,22
576,62	1548,26
576,82	1538,02
577,02	1595,37
577,23	1527,78
577,43	1626,09
577,63	1542,12
577,84	1437,67
578,04	1560,55
578,24	1533,93
578,45	1562,60
578,65	1476,59
578,85	1542,12
579,06	1681,38
579,26	1538,02
579,46	1511,40
579,67	1501,16
579,87	1642,47
580,07	1554,41
580,27	1511,40
580,48	1583,08
580,68	1519,59
580,88	1642,47
581,09	1515,50
581,29	1576,94
581,49	1558,50
581,69	1540,07
581,90	1519,59
582,10	1490,92
582,30	1554,41
582,51	1603,56
582,71	1607,66
582,91	1476,59
583,11	1550,31
583,32	1568,74
583,52	1540,07
583,72	1544,17
583,93	1568,74
584,13	1499,11
584,33	1550,31
584,53	1492,97
584,74	1587,18
584,94	1525,74
585,14	1572,84
585,34	1533,93
585,55	1552,36
585,75	1611,75
585,95	1558,50
586,15	1591,27
586,36	1587,18
586,56	1628,14
586,76	1656,81
586,96	1548,26
587,17	1548,26
587,37	1564,65
587,57	1454,06
587,77	1497,07
587,98	1677,29
588,18	1548,26
588,38	1558,50
588,58	1552,36
588,79	1578,98
588,99	1480,68
589,19	1617,90
589,39	1615,85
589,60	1587,18
589,80	1652,71
590,00	1607,66
590,20	1552,36
590,40	1464,30
590,61	1587,18
590,81	1548,26
591,01	1499,11
591,21	1572,84
591,42	1605,61
591,62	1546,22
591,82	1535,98
592,02	1679,33
592,22	1597,42
592,43	1513,45
592,63	1583,08
592,83	1701,86
593,03	1624,04
593,23	1562,60
593,44	1581,03
593,64	1476,59
593,84	1654,76
594,04	1527,78
594,24	1626,09
594,45	1529,83
594,65	1511,40
594,85	1570,79
595,05	1546,22
595,25	1589,22
595,46	1689,57
595,66	1560,55
595,86	1648,61
596,06	1578,98
596,26	1523,69
596,46	1529,83
596,67	1521,64
596,87	1601,51
597,07	1548,26
597,27	1566,70
597,47	1531,88
597,67	1628,14
597,88	1591,27
598,08	1511,40
598,28	1607,66
598,48	1599,46
598,68	1546,22
598,88	1626,09
599,09	1603,56
599,29	1552,36
599,49	1576,94
599,69	1642,47
599,89	1605,61
600,09	1632,23
600,30	1660,90
600,50	1687,53
600,70	1621,99
600,90	1562,60
601,10	1673,19
601,30	1624,04
601,50	1568,74
601,71	1728,49
601,91	1650,66
602,11	1566,70
602,31	1640,42
602,51	1605,61
602,71	1566,70
602,91	1615,85
603,11	1585,13
603,32	1628,14
603,52	1621,99
603,72	1652,71
603,92	1548,26
604,12	1578,98
604,32	1648,61
604,52	1656,81
604,72	1683,43
604,93	1742,82
605,13	1646,57
605,33	1644,52
605,53	1644,52
605,73	1644,52
605,93	1746,92
606,13	1656,81
606,33	1652,71
606,53	1597,42
606,74	1628,14
606,94	1679,33
607,14	1728,49
607,34	1632,23
607,54	1578,98
607,74	1701,86
607,94	1527,78
608,14	1791,97
608,34	1597,42
608,54	1665,00
608,74	1613,80
608,95	1640,42
609,15	1695,72
609,35	1619,94
609,55	1636,33
609,75	1656,81
609,95	1759,21
610,15	1722,34
610,35	1777,64
610,55	1679,33
610,75	1640,42
610,95	1648,61
611,15	1769,44
611,35	1740,77
611,55	1761,25
611,76	1742,82
611,96	1687,53
612,16	1759,21
612,36	1771,49
612,56	1789,92
612,76	1722,34
612,96	1769,44
613,16	1808,36
613,36	1787,88
613,56	1777,64
613,76	1701,86
613,96	1763,30
614,16	1775,59
614,36	1734,63
614,56	1755,11
614,76	1818,60
614,96	1794,02
615,16	1820,64
615,36	1767,40
615,56	1822,69
615,76	1689,57
615,97	1785,83
616,17	1812,45
616,37	1875,94
616,57	1869,80
616,77	1785,83
616,97	1851,36
617,17	1763,30
617,37	1871,84
617,57	1791,97
617,77	1920,99
617,97	1931,23
618,17	1820,64
618,37	1982,43
618,57	1894,37
618,77	1867,75
618,97	1853,41
619,17	1900,52
619,37	1894,37
619,57	1847,27
619,77	1892,32
619,97	1837,03
620,17	2019,30
620,37	2004,96
620,57	1882,08
620,77	2019,30
620,97	1998,82
621,17	1826,79
621,37	1873,89
621,57	2002,91
621,77	1890,28
621,97	2000,87
622,17	1918,95
622,37	2002,91
622,57	2054,11
622,77	1968,10
622,97	1892,32
623,17	1976,29
623,37	2084,83
623,57	2076,64
623,77	2009,06
623,97	1961,95
624,16	1908,71
624,36	2047,97
624,56	2082,78
624,76	2058,21
624,96	2035,68
625,16	2195,42
625,36	2105,31
625,56	2170,85
625,76	2023,39
625,96	2121,70
626,16	2105,31
626,36	2109,41
626,56	2240,48
626,76	2191,33
626,96	2047,97
627,16	2197,47
627,36	2107,36
627,56	2357,21
627,76	2220,00
627,96	2185,18
628,16	2254,81
628,35	2314,20
628,55	2203,61
628,75	2220,00
628,95	2267,10
629,15	2295,77
629,35	2224,09
629,55	2320,35
629,75	2338,78
629,95	2369,50
630,15	2430,94
630,35	2400,22
630,55	2473,95
630,75	2418,65
630,95	2490,33
631,14	2451,42
631,34	2445,27
631,54	2484,19
631,74	2566,10
631,94	2502,62
632,14	2512,86
632,34	2592,73
632,54	2578,39
632,74	2559,96
632,94	2533,34
633,14	2662,36
633,33	2533,34
633,53	2639,83
633,73	2836,44
633,93	2746,33
634,13	2725,85
634,33	2686,94
634,53	2777,05
634,73	2811,86
634,93	2787,29
635,12	2719,70
635,32	2850,77
635,52	2766,81
635,72	2811,86
635,92	2869,20
636,12	3022,80
636,32	3014,61
636,52	2895,83
636,71	2785,24
636,91	2994,13
637,11	2934,74
637,31	2971,60
637,51	2920,40
637,71	3033,04
637,91	3026,90
638,11	3030,99
638,30	2955,22
638,50	2918,36
638,70	3100,62
638,90	2918,36
639,10	2975,70
639,30	2938,84
639,50	3024,85
639,69	2881,49
639,89	3022,80
640,09	3016,66
640,29	3043,28
640,49	3035,09
640,69	2944,98
640,88	3037,14
641,08	2979,79
641,28	2998,23
641,48	2955,22
641,68	2985,94
641,88	2994,13
642,07	2815,96
642,27	2920,40
642,47	2799,57
642,67	2887,64
642,87	2877,40
643,07	2783,19
643,26	2785,24
643,46	2834,39
643,66	2711,51
643,86	2783,19
644,06	2750,42
644,26	2742,23
644,45	2729,94
644,65	2631,64
644,85	2623,45
645,05	2674,65
645,25	2705,37
645,44	2529,24
645,64	2627,54
645,84	2541,53
646,04	2525,15
646,24	2557,91
646,43	2652,12
646,63	2559,96
646,83	2410,46
647,03	2377,69
647,23	2336,73
647,42	2410,46
647,62	2367,45
647,82	2320,35
648,02	2236,38
648,22	2289,63
648,41	2291,68
648,61	2203,61
648,81	2211,81
649,01	2209,76
649,20	2256,86
649,40	2095,07
649,60	2322,40
649,80	2080,74
650,00	2080,74
650,19	2105,31
650,39	2086,88
650,59	2113,50
650,79	2017,25
650,98	2050,02
651,18	1925,09
651,38	1959,91
651,58	2027,49
651,77	1966,05
651,97	2013,15
652,17	1900,52
652,37	1941,47
652,56	1888,23
652,76	1890,28
652,96	1929,19
653,16	1849,32
653,35	1810,40
653,55	1818,60
653,75	1806,31
653,95	1912,80
654,14	1812,45
654,34	1824,74
654,54	1812,45
654,74	1806,31
654,93	1853,41
655,13	1746,92
655,33	1697,77
655,52	1834,98
655,72	1791,97
655,92	1761,25
656,12	1683,43
656,31	1728,49
656,51	1822,69
656,71	1712,10
656,91	1757,16
657,10	1665,00
657,30	1619,94
657,50	1710,05
657,69	1785,83
657,89	1751,01
658,09	1832,93
658,29	1796,07
658,48	1652,71
658,68	1771,49
658,88	1765,35
659,07	1683,43
659,27	1736,68
659,47	1652,71
659,66	1683,43
659,86	1617,90
660,06	1718,25
660,26	1630,18
660,45	1712,10
660,65	1667,05
660,85	1724,39
661,04	1619,94
661,24	1732,58
661,44	1566,70
661,63	1593,32
661,83	1716,20
662,03	1636,33
662,22	1675,24
662,42	1687,53
662,62	1624,04
662,81	1605,61
663,01	1679,33
663,21	1648,61
663,40	1583,08
663,60	1656,81
663,80	1595,37
663,99	1746,92
664,19	1662,95
664,39	1642,47
664,58	1562,60
664,78	1607,66
664,98	1478,63
665,17	1615,85
665,37	1558,50
665,57	1646,57
665,76	1587,18
665,96	1529,83
666,16	1624,04
666,35	1609,70
666,55	1603,56
666,74	1585,13
666,94	1726,44
667,14	1556,46
667,33	1615,85
667,53	1519,59
667,73	1556,46
667,92	1630,18
668,12	1546,22
668,32	1638,38
668,51	1550,31
668,71	1558,50
668,90	1499,11
669,10	1615,85
669,30	1603,56
669,49	1630,18
669,69	1638,38
669,89	1558,50
670,08	1533,93
670,28	1763,30
670,47	1572,84
670,67	1585,13
670,87	1556,46
671,06	1621,99
671,26	1613,80
671,45	1548,26
671,65	1630,18
671,85	1542,12
672,04	1550,31
672,24	1495,02
672,43	1531,88
672,63	1628,14
672,83	1482,73
673,02	1558,50
673,22	1476,59
673,41	1581,03
673,61	1538,02
673,81	1607,66
674,00	1591,27
674,20	1554,41
674,39	1556,46
674,59	1531,88
674,78	1497,07
674,98	1593,32
675,18	1558,50
675,37	1599,46
675,57	1519,59
675,76	1591,27
675,96	1613,80
676,15	1513,45
676,35	1517,54
676,55	1576,94
676,74	1607,66
676,94	1515,50
677,13	1578,98
677,33	1642,47
677,52	1581,03
677,72	1556,46
677,91	1501,16
678,11	1468,39
678,31	1540,07
678,50	1509,35
678,70	1433,58
678,89	1585,13
679,09	1523,69
679,28	1503,21
679,48	1570,79
679,67	1591,27
679,87	1574,89
680,06	1726,44
680,26	1705,96
680,46	1556,46
680,65	1458,15
680,85	1581,03
681,04	1507,30
681,24	1458,15
681,43	1578,98
681,63	1591,27
681,82	1560,55
682,02	1517,54
682,21	1499,11
682,41	1546,22
682,60	1615,85
682,80	1568,74
682,99	1576,94
683,19	1595,37
683,38	1638,38
683,58	1611,75
683,77	1615,85
683,97	1617,90
684,16	1685,48
684,36	1499,11
684,55	1636,33
684,75	1615,85
684,94	1640,42
685,14	1597,42
685,33	1552,36
685,53	1511,40
685,72	1499,11
685,92	1572,84
686,11	1611,75
686,31	1531,88
686,50	1576,94
686,70	1538,02
686,89	1531,88
687,09	1527,78
687,28	1619,94
687,48	1499,11
687,67	1621,99
687,87	1562,60
688,06	1511,40
688,26	1638,38
688,45	1529,83
688,65	1574,89
688,84	1595,37
689,03	1492,97
689,23	1486,83
689,42	1566,70
689,62	1546,22
689,81	1634,28
690,01	1587,18
690,20	1548,26
690,40	1509,35
690,59	1638,38
690,79	1578,98
690,98	1634,28
691,17	1513,45
691,37	1576,94
691,56	1574,89
691,76	1652,71
691,95	1589,22
692,15	1486,83
692,34	1521,64
692,54	1527,78
692,73	1529,83
692,92	1654,76
693,12	1550,31
693,31	1490,92
693,51	1519,59
693,70	1472,49
693,90	1548,26
694,09	1519,59
694,28	1540,07
694,48	1540,07
694,67	1546,22
694,87	1566,70
695,06	1593,32
695,26	1564,65
695,45	1533,93
695,64	1521,64
695,84	1523,69
696,03	1517,54
696,23	1519,59
696,42	1458,15
696,61	1499,11
696,81	1464,30
697,00	1503,21
697,20	1617,90
697,39	1591,27
697,58	1470,44
697,78	1566,70
697,97	1599,46
698,17	1572,84
698,36	1562,60
698,55	1441,77
698,75	1654,76
698,94	1558,50
699,14	1527,78
699,33	1490,92
699,52	1556,46
699,72	1605,61
699,91	1521,64
700,10	1574,89
700,30	1533,93
700,49	1507,30
700,69	1554,41
700,88	1605,61
701,07	1517,54
701,27	1525,74
701,46	1632,23
701,65	1470,44
701,85	1470,44
702,04	1660,90
702,23	1509,35
702,43	1419,24
702,62	1505,26
702,82	1535,98
703,01	1681,38
703,20	1572,84
703,40	1562,60
703,59	1501,16
703,78	1585,13
703,98	1509,35
704,17	1583,08
704,36	1583,08
704,56	1613,80
704,75	1394,67
704,94	1503,21
705,14	1550,31
705,33	1617,90
705,52	1607,66
705,72	1552,36
705,91	1560,55
706,10	1535,98
706,30	1550,31
706,49	1601,51
706,68	1550,31
706,88	1591,27
707,07	1521,64
707,26	1595,37
707,46	1599,46
707,65	1572,84
707,84	1574,89
708,04	1443,82
708,23	1640,42
708,42	1585,13
708,62	1542,12
708,81	1472,49
709,00	1665,00
709,19	1572,84
709,39	1515,50
709,58	1589,22
709,77	1564,65
709,97	1572,84
710,16	1542,12
710,35	1636,33
710,55	1523,69
710,74	1560,55
710,93	1531,88
711,12	1603,56
711,32	1544,17
711,51	1632,23
711,70	1439,72
711,90	1550,31
712,09	1501,16
712,28	1538,02
712,47	1550,31
712,67	1576,94
712,86	1550,31
713,05	1589,22
713,24	1531,88
713,44	1601,51
713,63	1611,75
713,82	1583,08
714,02	1562,60
714,21	1734,63
714,40	1560,55
714,59	1587,18
714,79	1497,07
714,98	1480,68
715,17	1699,81
715,36	1519,59
715,56	1587,18
715,75	1529,83
715,94	1570,79
716,13	1574,89
716,33	1568,74
716,52	1538,02
716,71	1613,80
716,90	1554,41
717,10	1523,69
717,29	1501,16
717,48	1597,42
717,67	1550,31
717,87	1550,31
718,06	1548,26
718,25	1591,27
718,44	1648,61
718,63	1597,42
718,83	1558,50
719,02	1529,83
719,21	1533,93
719,40	1511,40
719,60	1464,30
719,79	1589,22
719,98	1595,37
720,17	1509,35
720,36	1626,09
720,56	1552,36
720,75	1499,11
720,94	1585,13
721,13	1578,98
721,33	1611,75
721,52	1503,21
721,71	1587,18
721,90	1640,42
722,09	1576,94
722,29	1570,79
722,48	1497,07
722,67	1525,74
722,86	1628,14
723,05	1523,69
723,24	1609,70
723,44	1562,60
723,63	1550,31
723,82	1531,88
724,01	1527,78
724,20	1607,66
724,40	1521,64
724,59	1519,59
724,78	1462,25
724,97	1529,83
725,16	1607,66
725,35	1648,61
725,55	1574,89
725,74	1609,70
725,93	1630,18
726,12	1562,60
726,31	1669,09
726,51	1615,85
726,70	1495,02
726,89	1581,03
727,08	1529,83
727,27	1566,70
727,46	1533,93
727,65	1511,40
727,85	1576,94
728,04	1607,66
728,23	1488,87
728,42	1560,55
728,61	1671,14
728,80	1507,30
729,00	1570,79
729,19	1535,98
729,38	1689,57
729,57	1552,36
729,76	1492,97
729,95	1705,96
730,14	1564,65
730,33	1492,97
730,53	1554,41
730,72	1546,22
730,91	1593,32
731,10	1648,61
731,29	1740,77
731,48	1632,23
731,67	1431,53
731,86	1529,83
732,06	1511,40
732,25	1527,78
732,44	1615,85
732,63	1521,64
732,82	1665,00
733,01	1681,38
733,20	1550,31
733,39	1527,78
733,59	1511,40
733,78	1540,07
733,97	1615,85
734,16	1601,51
734,35	1572,84
734,54	1619,94
734,73	1554,41
734,92	1581,03
735,11	1542,12
735,30	1533,93
735,49	1609,70
735,69	1679,33
735,88	1597,42
736,07	1615,85
736,26	1548,26
736,45	1542,12
736,64	1540,07
736,83	1597,42
737,02	1615,85
737,21	1544,17
737,40	1468,39
737,59	1740,77
737,78	1476,59
737,98	1482,73
738,17	1630,18
738,36	1613,80
738,55	1499,11
738,74	1558,50
738,93	1505,26
739,12	1476,59
739,31	1511,40
739,50	1501,16
739,69	1587,18
739,88	1583,08
740,07	1589,22
740,26	1619,94
740,45	1574,89
740,64	1613,80
740,83	1519,59
741,02	1560,55
741,22	1578,98
741,41	1503,21
741,60	1517,54
741,79	1556,46
741,98	1535,98
742,17	1552,36
742,36	1542,12
742,55	1521,64
742,74	1644,52
742,93	1533,93
743,12	1576,94
743,31	1527,78
743,50	1607,66
743,69	1677,29
743,88	1607,66
744,07	1548,26
744,26	1701,86
744,45	1501,16
744,64	1619,94
744,83	1650,66
745,02	1501,16
745,21	1517,54
745,40	1562,60
745,59	1632,23
745,78	1515,50
745,97	1628,14
746,16	1589,22
746,35	1599,46
746,54	1519,59
746,73	1511,40
746,92	1548,26
747,11	1542,12
747,30	1570,79
747,49	1474,54
747,68	1609,70
747,87	1538,02
748,06	1566,70
748,25	1552,36
748,44	1556,46
748,63	1636,33
748,82	1540,07
749,01	1568,74
749,20	1529,83
749,39	1562,60
749,58	1554,41
749,77	1585,13
749,96	1519,59
750,15	1587,18
750,34	1490,92
750,53	1544,17
750,72	1599,46
750,91	1550,31
751,10	1597,42
751,29	1544,17
751,48	1472,49
751,67	1490,92
751,86	1654,76
752,04	1603,56
752,23	1576,94
752,42	1572,84
752,61	1542,12
752,80	1501,16
752,99	1484,78
753,18	1564,65
753,37	1609,70
753,56	1486,83
753,75	1533,93
753,94	1523,69
754,13	1531,88
754,32	1523,69
754,51	1474,54
754,70	1517,54
754,89	1482,73
755,08	1583,08
755,27	1527,78
755,45	1589,22
755,64	1591,27
755,83	1570,79
756,02	1650,66
756,21	1499,11
756,40	1527,78
756,59	1556,46
756,78	1544,17
756,97	1468,39
757,16	1501,16
757,35	1634,28
757,54	1556,46
757,72	1673,19
757,91	1511,40
758,10	1525,74
758,29	1558,50
758,48	1640,42
758,67	1458,15
758,86	1574,89
759,05	1552,36
759,24	1544,17
759,43	1538,02
759,61	1497,07
759,80	1509,35
759,99	1517,54
760,18	1521,64
760,37	1470,44
760,56	1499,11
760,75	1548,26
760,94	1585,13
761,13	1591,27
761,31	1609,70
761,50	1515,50
761,69	1540,07
761,88	1548,26
762,07	1484,78
762,26	1583,08
762,45	1460,20
762,64	1544,17
762,82	1476,59
763,01	1673,19
763,20	1521,64
763,39	1568,74
763,58	1581,03
763,77	1519,59
763,96	1548,26
764,14	1550,31
764,33	1556,46
764,52	1566,70
764,71	1566,70
764,90	1572,84
765,09	1492,97
765,27	1572,84
765,46	1556,46
765,65	1505,26
765,84	1505,26
766,03	1624,04
766,22	1490,92
766,41	1523,69
766,59	1462,25
766,78	1564,65
766,97	1529,83
767,16	1544,17
767,35	1464,30
767,54	1644,52
767,72	1570,79
767,91	1482,73
768,10	1511,40
768,29	1523,69
768,48	1581,03
768,66	1572,84
768,85	1542,12
769,04	1492,97
769,23	1535,98
769,42	1621,99
769,61	1527,78
769,79	1638,38
769,98	1603,56
770,17	1441,77
770,36	1662,95
770,55	1605,61
770,73	1609,70
770,92	1626,09
771,11	1566,70
771,30	1478,63
771,49	1587,18
771,67	1710,05
771,86	1511,40
772,05	1529,83
772,24	1474,54
772,42	1466,35
772,61	1552,36
772,80	1499,11
772,99	1517,54
773,18	1587,18
773,36	1525,74
773,55	1470,44
773,74	1449,96
773,93	1529,83
774,11	1415,15
774,30	1597,42
774,49	1568,74
774,68	1574,89
774,87	1492,97
775,05	1474,54
775,24	1523,69
775,43	1574,89
775,62	1599,46
775,80	1533,93
775,99	1609,70
776,18	1632,23
776,37	1511,40
776,55	1583,08
776,74	1550,31
776,93	1609,70
777,12	1554,41
777,30	1507,30
777,49	1556,46
777,68	1501,16
777,87	1589,22
778,05	1423,34
778,24	1513,45
778,43	1574,89
778,62	1456,11
778,80	1572,84
778,99	1603,56
779,18	1542,12
779,36	1546,22
779,55	1470,44
779,74	1585,13
779,93	1597,42
780,11	1505,26
780,30	1400,81
780,49	1638,38
780,68	1587,18
780,86	1597,42
781,05	1521,64
781,24	1685,48
781,42	1581,03
781,61	1564,65
781,80	1433,58
781,98	1675,24
782,17	1566,70
782,36	1589,22
782,55	1568,74
782,73	1546,22
782,92	1687,53
783,11	1484,78
783,29	1531,88
783,48	1603,56
783,67	1531,88
783,85	1652,71
784,04	1525,74
784,23	1540,07
784,42	1550,31
784,60	1495,02
784,79	1662,95
784,98	1503,21
785,16	1554,41
785,35	1570,79
785,54	1658,85
785,72	1605,61
785,91	1570,79
786,10	1452,01
786,28	1572,84
786,47	1728,49
786,66	1546,22
786,84	1697,77
787,03	1599,46
787,22	1531,88
787,40	1529,83
787,59	1562,60
787,78	1556,46
787,96	1517,54
788,15	1507,30
788,34	1642,47
788,52	1585,13
788,71	1591,27
788,89	1529,83
789,08	1531,88
789,27	1570,79
789,45	1544,17
789,64	1478,63
789,83	1468,39
790,01	1566,70
790,20	1605,61
790,39	1521,64
790,57	1548,26
790,76	1433,58
790,95	1480,68
791,13	1531,88
791,32	1482,73
791,50	1722,34
791,69	1578,98
791,88	1597,42
792,06	1708,01
792,25	1576,94
792,43	1486,83
792,62	1652,71
792,81	1474,54
792,99	1505,26
793,18	1570,79
793,37	1488,87
793,55	1542,12
793,74	1621,99
793,92	1642,47
794,11	1583,08
794,30	1538,02
794,48	1589,22
794,67	1507,30
794,85	1554,41
795,04	1497,07
795,23	1556,46
795,41	1417,19
795,60	1527,78
795,78	1538,02
795,97	1658,85
796,15	1652,71
796,34	1572,84
796,53	1503,21
796,71	1556,46
796,90	1589,22
797,08	1437,67
797,27	1615,85
797,46	1542,12
797,64	1566,70
797,83	1597,42
798,01	1599,46
798,20	1593,32
798,38	1593,32
798,57	1421,29
798,76	1503,21
798,94	1523,69
799,13	1538,02
799,31	1558,50
799,50	1406,95
799,68	1497,07
799,87	1495,02
800,05	1578,98
800,24	1546,22
800,43	1431,53
800,61	1705,96
800,80	1656,81
800,98	1490,92
801,17	1542,12
801,35	1550,31
801,54	1515,50
801,72	1509,35
801,91	1538,02
802,09	1492,97
802,28	1531,88
802,46	1531,88
802,65	1529,83
802,84	1671,14
803,02	1574,89
803,21	1581,03
803,39	1488,87
803,58	1597,42
803,76	1556,46
803,95	1562,60
804,13	1501,16
804,32	1435,63
804,50	1615,85
804,69	1640,42
804,87	1570,79
805,06	1574,89
805,24	1611,75
805,43	1544,17
805,61	1578,98
805,80	1564,65
805,98	1515,50
806,17	1531,88
806,35	1501,16
806,54	1656,81
806,72	1523,69
806,91	1540,07
807,09	1585,13
807,28	1554,41
807,46	1613,80
807,65	1585,13
807,83	1533,93
808,02	1486,83
808,20	1624,04
808,39	1503,21
808,57	1585,13
808,76	1583,08
808,94	1626,09
809,13	1556,46
809,31	1558,50
809,49	1624,04
809,68	1550,31
809,86	1630,18
810,05	1538,02
810,23	1628,14
810,42	1560,55
810,60	1568,74
810,79	1525,74
810,97	1417,19
811,16	1527,78
811,34	1621,99
811,53	1615,85
811,71	1572,84
811,89	1630,18
812,08	1544,17
812,26	1501,16
812,45	1613,80
812,63	1517,54
812,82	1601,51
813,00	1439,72
813,19	1552,36
813,37	1578,98
813,55	1570,79
813,74	1513,45
813,92	1621,99
814,11	1468,39
814,29	1466,35
814,48	1540,07
814,66	1581,03
814,84	1523,69
815,03	1486,83
815,21	1621,99
815,40	1550,31
815,58	1556,46
815,77	1644,52
815,95	1589,22
816,13	1488,87
816,32	1638,38
816,50	1566,70
816,69	1542,12
816,87	1460,20
817,05	1550,31
817,24	1558,50
817,42	1560,55
817,61	1533,93
817,79	1538,02
817,97	1527,78
818,16	1552,36
818,34	1660,90
818,53	1492,97
818,71	1611,75
818,89	1474,54
819,08	1576,94
819,26	1562,60
819,45	1605,61
819,63	1566,70
819,81	1619,94
820,00	1728,49
820,18	1490,92
820,36	1642,47
820,55	1497,07
820,73	1531,88
820,92	1519,59
821,10	1519,59
821,28	1535,98
821,47	1613,80
821,65	1533,93
821,83	1644,52
822,02	1492,97
822,20	1589,22
822,39	1482,73
822,57	1495,02
822,75	1556,46
822,94	1527,78
823,12	1576,94
823,30	1472,49
823,49	1660,90
823,67	1581,03
823,85	1556,46
824,04	1523,69
824,22	1558,50
824,40	1658,85
824,59	1654,76
824,77	1531,88
824,95	1486,83
825,14	1581,03
825,32	1562,60
825,50	1540,07
825,69	1495,02
825,87	1671,14
826,05	1615,85
826,24	1535,98
826,42	1624,04
826,60	1572,84
826,79	1581,03
826,97	1501,16
827,15	1462,25
827,34	1519,59
827,52	1499,11
827,70	1492,97
827,89	1490,92
828,07	1505,26
828,25	1572,84
828,44	1542,12
828,62	1458,15
828,80	1531,88
828,98	1599,46
829,17	1525,74
829,35	1619,94
829,53	1550,31
829,72	1480,68
829,90	1533,93
830,08	1574,89
830,27	1564,65
830,45	1687,53
830,63	1712,10
830,81	1515,50
831,00	1591,27
831,18	1515,50
831,36	1552,36
831,55	1486,83
831,73	1519,59
831,91	1435,63
832,09	1531,88
832,28	1583,08
832,46	1445,87
832,64	1511,40
832,82	1535,98
833,01	1572,84
833,19	1558,50
833,37	1437,67
833,55	1488,87
833,74	1589,22
833,92	1464,30
834,10	1476,59
834,29	1560,55
834,47	1495,02
834,65	1542,12
834,83	1486,83
835,02	1507,30
835,20	1462,25
835,38	1564,65
835,56	1562,60
835,75	1619,94
835,93	1570,79
836,11	1540,07
836,29	1527,78
836,47	1576,94
836,66	1490,92
836,84	1589,22
837,02	1552,36
837,20	1642,47
837,39	1531,88
837,57	1605,61
837,75	1480,68
837,93	1523,69
838,12	1499,11
838,30	1558,50
838,48	1560,55
838,66	1558,50
838,84	1513,45
839,03	1669,09
839,21	1495,02
839,39	1466,35
839,57	1583,08
839,75	1587,18
839,94	1513,45
840,12	1548,26
840,30	1538,02
840,48	1617,90
840,66	1515,50
840,85	1511,40
841,03	1515,50
841,21	1511,40
841,39	1658,85
841,57	1540,07
841,76	1529,83
841,94	1628,14
842,12	1554,41
842,30	1521,64
842,48	1619,94
842,67	1525,74
842,85	1550,31
843,03	1550,31
843,21	1609,70
843,39	1576,94
843,57	1488,87
843,76	1581,03
843,94	1517,54
844,12	1578,98
844,30	1429,48
844,48	1519,59
844,66	1587,18
844,85	1564,65
845,03	1591,27
845,21	1556,46
845,39	1583,08
845,57	1531,88
845,75	1578,98
845,94	1521,64
846,12	1583,08
846,30	1556,46
846,48	1480,68
846,66	1568,74
846,84	1402,86
847,02	1538,02
847,21	1560,55
847,39	1527,78
847,57	1566,70
847,75	1490,92
847,93	1517,54
848,11	1462,25
848,29	1505,26
848,48	1437,67
848,66	1552,36
848,84	1597,42
849,02	1492,97
849,20	1511,40
849,38	1632,23
849,56	1505,26
849,74	1513,45
849,93	1658,85
850,11	1531,88
850,29	1517,54
850,47	1517,54
850,65	1527,78
850,83	1447,91
851,01	1460,20
851,19	1548,26
851,37	1497,07
851,56	1542,12
851,74	1576,94
851,92	1445,87
852,10	1544,17
852,28	1542,12
852,46	1609,70
852,64	1564,65
852,82	1621,99
853,00	1570,79
853,18	1488,87
853,37	1505,26
853,55	1509,35
853,73	1558,50
853,91	1546,22
854,09	1437,67
854,27	1601,51
854,45	1646,57
854,63	1507,30
854,81	1507,30
854,99	1578,98
855,17	1466,35
855,35	1495,02
855,53	1538,02
855,72	1560,55
855,90	1511,40
856,08	1654,76
856,26	1556,46
856,44	1683,43
856,62	1441,77
856,80	1484,78
856,98	1523,69
857,16	1548,26
857,34	1572,84
857,52	1570,79
857,70	1624,04
857,88	1548,26
858,06	1503,21
858,24	1505,26
858,42	1572,84
858,60	1507,30
858,78	1535,98
858,96	1570,79
859,15	1486,83
859,33	1525,74
859,51	1519,59
859,69	1519,59
859,87	1529,83
860,05	1593,32
860,23	1583,08
860,41	1517,54
860,59	1570,79
860,77	1564,65
860,95	1517,54
861,13	1503,21
861,31	1497,07
861,49	1605,61
861,67	1540,07
861,85	1558,50
862,03	1665,00
862,21	1517,54
862,39	1572,84
862,57	1581,03
862,75	1570,79
862,93	1605,61
863,11	1578,98
863,29	1417,19
863,47	1564,65
863,65	1576,94
863,83	1507,30
864,01	1515,50
864,19	1474,54
864,37	1540,07
864,55	1538,02
864,73	1587,18
864,91	1619,94
865,09	1585,13
865,27	1550,31
865,45	1449,96
865,63	1546,22
865,81	1476,59
865,99	1499,11
866,17	1611,75
866,35	1519,59
866,53	1675,24
866,71	1519,59
866,89	1658,85
867,07	1515,50
867,24	1503,21
867,42	1621,99
867,60	1619,94
867,78	1568,74
867,96	1554,41
868,14	1566,70
868,32	1601,51
868,50	1581,03
868,68	1550,31
868,86	1601,51
869,04	1589,22
869,22	1535,98
869,40	1540,07
869,58	1544,17
869,76	1492,97
869,94	1484,78
870,12	1486,83
870,30	1540,07
870,48	1570,79
870,66	1519,59
870,83	1478,63
871,01	1546,22
871,19	1546,22
871,37	1495,02
871,55	1480,68
871,73	1525,74
871,91	1603,56
872,09	1542,12
872,27	1595,37
872,45	1544,17
872,63	1454,06
872,81	1454,06
872,98	1662,95
873,16	1613,80
873,34	1615,85
873,52	1443,82
873,70	1609,70
873,88	1634,28
874,06	1505,26
874,24	1572,84
874,42	1437,67
874,60	1470,44
874,78	1478,63
874,95	1562,60
875,13	1531,88
875,31	1499,11
875,49	1554,41
875,67	1511,40
875,85	1535,98
876,03	1523,69
876,21	1490,92
876,39	1523,69
876,56	1601,51
876,74	1478,63
876,92	1562,60
877,10	1550,31
877,28	1509,35
877,46	1515,50
877,64	1554,41
877,82	1568,74
877,99	1529,83
878,17	1591,27
878,35	1499,11
878,53	1576,94
878,71	1662,95
878,89	1605,61
879,07	1609,70
879,24	1570,79
879,42	1556,46
879,60	1544,17
879,78	1630,18
879,96	1538,02
880,14	1585,13
880,32	1480,68
880,49	1452,01
880,67	1511,40
880,85	1589,22
881,03	1574,89
881,21	1523,69
881,39	1511,40
881,56	1548,26
881,74	1583,08
881,92	1495,02
882,10	1601,51
882,28	1495,02
882,46	1595,37
882,63	1513,45
882,81	1470,44
882,99	1540,07
883,17	1488,87
883,35	1585,13
883,52	1585,13
883,70	1535,98
883,88	1492,97
884,06	1535,98
884,24	1558,50
884,42	1675,24
884,59	1544,17
884,77	1593,32
884,95	1613,80
885,13	1540,07
885,31	1509,35
885,48	1525,74
885,66	1521,64
885,84	1568,74
886,02	1505,26
886,20	1677,29
886,37	1560,55
886,55	1667,05
886,73	1624,04
886,91	1511,40
887,08	1613,80
887,26	1517,54
887,44	1568,74
887,62	1525,74
887,80	1585,13
887,97	1538,02
888,15	1540,07
888,33	1574,89
888,51	1511,40
888,68	1560,55
888,86	1533,93
889,04	1574,89
889,22	1562,60
889,40	1538,02
889,57	1595,37
889,75	1630,18
889,93	1503,21
890,11	1517,54
890,28	1591,27
890,46	1542,12
890,64	1505,26
890,82	1669,09
890,99	1644,52
891,17	1478,63
891,35	1519,59
891,53	1529,83
891,70	1470,44
891,88	1441,77
892,06	1515,50
892,24	1497,07
892,41	1560,55
892,59	1533,93
892,77	1544,17
892,94	1484,78
893,12	1572,84
893,30	1443,82
893,48	1585,13
893,65	1570,79
893,83	1566,70
894,01	1554,41
894,19	1540,07
894,36	1632,23
894,54	1456,11
894,72	1572,84
894,89	1480,68
895,07	1490,92
895,25	1589,22
895,43	1505,26
895,60	1583,08
895,78	1640,42
895,96	1509,35
896,13	1619,94
896,31	1570,79
896,49	1492,97
896,66	1523,69
896,84	1607,66
897,02	1533,93
897,20	1607,66
897,37	1503,21
897,55	1486,83
897,73	1636,33
897,90	1587,18
898,08	1603,56
898,26	1642,47
898,43	1521,64
898,61	1611,75
898,79	1521,64
898,96	1564,65
899,14	1490,92
899,32	1611,75
899,49	1427,43
899,67	1523,69
899,85	1619,94
900,02	1591,27
900,20	1525,74
900,38	1581,03
900,55	1632,23
900,73	1648,61
900,91	1566,70
901,08	1617,90
901,26	1527,78
901,44	1572,84
901,61	1583,08
901,79	1542,12
901,97	1632,23
902,14	1560,55
902,32	1550,31
902,50	1566,70
902,67	1591,27
902,85	1538,02
903,02	1562,60
903,20	1474,54
903,38	1503,21
903,55	1468,39
903,73	1515,50
903,91	1572,84
904,08	1656,81
904,26	1544,17
904,44	1650,66
904,61	1484,78
904,79	1511,40
904,96	1544,17
905,14	1505,26
905,32	1517,54
905,49	1621,99
905,67	1495,02
905,84	1564,65
906,02	1546,22
906,20	1482,73
906,37	1650,66
906,55	1581,03
906,73	1538,02
906,90	1576,94
907,08	1578,98
907,25	1513,45
907,43	1519,59
907,61	1480,68
907,78	1525,74
907,96	1560,55
908,13	1556,46
908,31	1667,05
908,48	1607,66
908,66	1499,11
908,84	1624,04
909,01	1615,85
909,19	1550,31
909,36	1523,69
909,54	1490,92
909,72	1511,40
909,89	1427,43
910,07	1445,87
910,24	1560,55
910,42	1601,51
910,59	1511,40
910,77	1486,83
910,95	1556,46
911,12	1554,41
911,30	1542,12
911,47	1495,02
911,65	1521,64
911,82	1484,78
912,00	1581,03
912,17	1476,59
912,35	1589,22
912,53	1599,46
912,70	1576,94
912,88	1562,60
913,05	1509,35
913,23	1562,60
913,40	1593,32
913,58	1546,22
913,75	1538,02
913,93	1531,88
914,10	1503,21
914,28	1544,17
914,46	1589,22
914,63	1542,12
914,81	1605,61
914,98	1499,11
915,16	1578,98
915,33	1501,16
915,51	1595,37
915,68	1589,22
915,86	1540,07
916,03	1509,35
916,21	1492,97
916,38	1578,98
916,56	1556,46
916,73	1603,56
916,91	1456,11
917,08	1550,31
917,26	1527,78
917,43	1542,12
917,61	1466,35
917,78	1593,32
917,96	1474,54
918,13	1525,74
918,31	1519,59
918,48	1513,45
918,66	1447,91
918,83	1634,28
919,01	1568,74
919,18	1519,59
919,36	1497,07
919,53	1560,55
919,71	1710,05
919,88	1552,36
920,06	1554,41
920,23	1525,74
920,41	1511,40
920,58	1499,11
920,76	1439,72
920,93	1581,03
921,11	1589,22
921,28	1445,87
921,45	1595,37
921,63	1533,93
921,80	1535,98
921,98	1576,94
922,15	1548,26
922,33	1525,74
922,50	1576,94
922,68	1523,69
922,85	1552,36
923,03	1474,54
923,20	1642,47
923,38	1517,54
923,55	1607,66
923,72	1525,74
923,90	1693,67
924,07	1452,01
924,25	1486,83
924,42	1570,79
924,60	1490,92
924,77	1558,50
924,95	1626,09
925,12	1570,79
925,29	1658,85
925,47	1583,08
925,64	1533,93
925,82	1503,21
925,99	1511,40
926,17	1615,85
926,34	1486,83
926,51	1554,41
926,69	1613,80
926,86	1570,79
927,04	1556,46
927,21	1525,74
927,38	1490,92
927,56	1511,40
927,73	1542,12
927,91	1542,12
928,08	1654,76
928,25	1593,32
928,43	1558,50
928,60	1507,30
928,78	1621,99
928,95	1515,50
929,12	1566,70
929,30	1568,74
929,47	1595,37
929,65	1486,83
929,82	1466,35
929,99	1601,51
930,17	1513,45
930,34	1517,54
930,52	1574,89
930,69	1533,93
930,86	1572,84
931,04	1478,63
931,21	1484,78
931,38	1495,02
931,56	1538,02
931,73	1607,66
931,91	1531,88
932,08	1560,55
932,25	1644,52
932,43	1546,22
932,60	1490,92
932,77	1507,30
932,95	1550,31
933,12	1511,40
933,29	1550,31
933,47	1576,94
933,64	1501,16
933,82	1593,32
933,99	1523,69
934,16	1529,83
934,34	1583,08
934,51	1533,93
934,68	1621,99
934,86	1578,98
935,03	1511,40
935,20	1488,87
935,38	1560,55
935,55	1544,17
935,72	1566,70
935,90	1556,46
936,07	1544,17
936,24	1562,60
936,42	1564,65
936,59	1595,37
936,76	1624,04
936,94	1462,25
937,11	1550,31
937,28	1535,98
937,46	1515,50
937,63	1609,70
937,80	1599,46
937,97	1636,33
938,15	1568,74
938,32	1548,26
938,49	1597,42
938,67	1570,79
938,84	1560,55
939,01	1574,89
939,19	1521,64
939,36	1597,42
939,53	1538,02
939,70	1585,13
939,88	1597,42
940,05	1630,18
940,22	1556,46
940,40	1609,70
940,57	1583,08
940,74	1558,50
940,92	1560,55
941,09	1556,46
941,26	1460,20
941,43	1583,08
941,61	1507,30
941,78	1501,16
941,95	1603,56
942,12	1505,26
942,30	1517,54
942,47	1642,47
942,64	1478,63
942,82	1646,57
942,99	1712,10
943,16	1490,92
943,33	1558,50
943,51	1554,41
943,68	1564,65
943,85	1447,91
944,02	1605,61
944,20	1601,51
944,37	1492,97
944,54	1619,94
944,71	1562,60
944,89	1515,50
945,06	1542,12
945,23	1576,94
945,40	1570,79
945,58	1609,70
945,75	1533,93
945,92	1654,76
946,09	1560,55
946,27	1611,75
946,44	1538,02
946,61	1642,47
946,78	1507,30
946,95	1513,45
947,13	1650,66
947,30	1546,22
947,47	1566,70
947,64	1433,58
947,82	1542,12
947,99	1482,73
948,16	1589,22
948,33	1593,32
948,50	1474,54
948,68	1515,50
948,85	1552,36
949,02	1570,79
949,19	1472,49
949,36	1542,12
949,54	1458,15
949,71	1636,33
949,88	1497,07
950,05	1562,60
950,22	1609,70
950,40	1550,31
950,57	1501,16
950,74	1626,09
950,91	1603,56
951,08	1576,94
951,26	1507,30
951,43	1533,93
951,60	1562,60
951,77	1638,38
951,94	1517,54
952,11	1662,95
952,29	1632,23
952,46	1476,59
952,63	1552,36
952,80	1437,67
952,97	1570,79
953,15	1581,03
953,32	1525,74
953,49	1535,98
953,66	1560,55
953,83	1509,35
954,00	1556,46
954,17	1466,35
954,35	1646,57
954,52	1490,92
954,69	1613,80
954,86	1568,74
955,03	1527,78
955,20	1572,84
955,38	1564,65
955,55	1589,22
955,72	1517,54
955,89	1443,82
956,06	1538,02
956,23	1572,84
956,40	1554,41
956,58	1511,40
956,75	1515,50
956,92	1548,26
957,09	1482,73
957,26	1556,46
957,43	1558,50
957,60	1601,51
957,77	1484,78
957,95	1574,89
958,12	1599,46
958,29	1589,22
958,46	1642,47
958,63	1490,92
958,80	1566,70
958,97	1595,37
959,14	1503,21
959,31	1552,36
959,49	1640,42
959,66	1585,13
959,83	1546,22
960,00	1533,93
960,17	1599,46
960,34	1542,12
960,51	1470,44
960,68	1644,52
960,85	1599,46
961,02	1554,41
961,20	1548,26
961,37	1517,54
961,54	1644,52
961,71	1558,50
961,88	1601,51
962,05	1521,64
962,22	1626,09
962,39	1540,07
962,56	1585,13
962,73	1542,12
962,90	1505,26
963,07	1572,84
963,24	1556,46
963,42	1507,30
963,59	1601,51
963,76	1615,85
963,93	1650,66
964,10	1572,84
964,27	1501,16
964,44	1636,33
964,61	1638,38
964,78	1523,69
964,95	1513,45
965,12	1593,32
965,29	1646,57
965,46	1509,35
965,63	1546,22
965,80	1570,79
965,97	1454,06
966,14	1529,83
966,31	1554,41
966,48	1621,99
966,66	1550,31
966,83	1529,83
967,00	1574,89
967,17	1621,99
967,34	1521,64
967,51	1591,27
967,68	1613,80
967,85	1566,70
968,02	1665,00
968,19	1449,96
968,36	1533,93
968,53	1470,44
968,70	1589,22
968,87	1546,22
969,04	1562,60
969,21	1472,49
969,38	1613,80
969,55	1527,78
969,72	1630,18
969,89	1662,95
970,06	1556,46
970,23	1548,26
970,40	1589,22
970,57	1458,15
970,74	1621,99
970,91	1513,45
971,08	1581,03
971,25	1519,59
971,42	1687,53
971,59	1578,98
971,76	1507,30
971,93	1589,22
972,10	1597,42
972,27	1630,18
972,44	1521,64
972,61	1552,36
972,78	1495,02
972,95	1562,60
973,12	1626,09
973,29	1560,55
973,46	1525,74
973,63	1566,70
973,80	1599,46
973,97	1542,12
974,14	1568,74
974,30	1578,98
974,47	1591,27
974,64	1634,28
974,81	1576,94
974,98	1708,01
975,15	1507,30
975,32	1578,98
975,49	1523,69
975,66	1535,98
975,83	1599,46
976,00	1560,55
976,17	1527,78
976,34	1572,84
976,51	1556,46
976,68	1431,53
976,85	1525,74
977,02	1556,46
977,19	1521,64
977,36	1529,83
977,52	1581,03
977,69	1589,22
977,86	1607,66
978,03	1587,18
978,20	1552,36
978,37	1472,49
978,54	1585,13
978,71	1581,03
978,88	1669,09
979,05	1533,93
979,22	1556,46
979,39	1546,22
979,56	1533,93
979,72	1470,44
979,89	1607,66
980,06	1634,28
980,23	1673,19
980,40	1595,37
980,57	1519,59
980,74	1515,50
980,91	1525,74
981,08	1538,02
981,25	1572,84
981,41	1568,74
981,58	1452,01
981,75	1527,78
981,92	1578,98
982,09	1568,74
982,26	1480,68
982,43	1507,30
982,60	1578,98
982,77	1529,83
982,93	1607,66
983,10	1574,89
983,27	1550,31
983,44	1548,26
983,61	1677,29
983,78	1648,61
983,95	1472,49
984,11	1486,83
984,28	1630,18
984,45	1546,22
984,62	1480,68
984,79	1597,42
984,96	1507,30
985,13	1597,42
985,30	1544,17
985,46	1464,30
985,63	1585,13
985,80	1529,83
985,97	1521,64
986,14	1484,78
986,31	1531,88
986,47	1521,64
986,64	1523,69
986,81	1554,41
986,98	1456,11
987,15	1544,17
987,32	1593,32
987,48	1603,56
987,65	1562,60
987,82	1570,79
987,99	1554,41
988,16	1929,19
988,33	1763,30
988,49	1529,83
988,66	1603,56
988,83	1515,50
989,00	1642,47
989,17	1525,74
989,34	1558,50
989,50	1611,75
989,67	1527,78
989,84	1529,83
990,01	1554,41
990,18	1509,35
990,34	1513,45
990,51	1535,98
990,68	1632,23
990,85	1611,75
991,02	1527,78
991,18	1507,30
991,35	1488,87
991,52	1583,08
991,69	1523,69
991,86	1574,89
992,02	1499,11
992,19	1472,49
992,36	1581,03
992,53	1628,14
992,69	1531,88
992,86	1544,17
993,03	1587,18
993,20	1404,91
993,37	1603,56
993,53	1652,71
993,70	1591,27
993,87	1511,40
994,04	1550,31
994,20	1513,45
994,37	1509,35
994,54	1550,31
994,71	1523,69
994,87	1628,14
995,04	1611,75
995,21	1529,83
995,38	1523,69
995,55	1521,64
995,71	1640,42
995,88	1632,23
996,05	1566,70
996,22	1656,81
996,38	1589,22
996,55	1533,93
996,72	1525,74
996,88	1640,42
997,05	2584,54
997,22	1525,74
997,39	1587,18
997,55	1646,57
997,72	1589,22
997,89	1531,88
998,06	1538,02
998,22	1554,41
998,39	1517,54
998,56	1441,77
998,73	1540,07
998,89	1593,32
999,06	1531,88
999,23	1587,18
999,39	1511,40
999,56	1548,26
999,73	1548,26
999,90	1499,11
1000,06	1576,94
1000,23	1589,22
1000,40	1587,18
1000,56	1558,50
1000,73	1515,50
1000,90	1609,70
1001,06	1546,22
1001,23	1499,11
1001,40	1636,33
1001,57	1593,32
1001,73	1501,16
1001,90	1531,88
1002,07	1540,07
1002,23	1525,74
1002,40	1495,02
1002,57	1501,16
1002,73	1568,74
1002,90	1437,67
1003,07	1621,99
1003,23	1525,74
1003,40	1542,12
1003,57	1523,69
1003,73	1509,35
1003,90	1558,50
1004,07	1445,87
1004,23	1519,59
1004,40	1603,56
1004,57	1523,69
1004,73	1441,77
1004,90	1509,35
1005,07	1597,42
1005,23	1552,36
1005,40	1535,98
1005,57	1523,69
1005,73	1613,80
1005,90	1546,22
1006,07	1634,28
1006,23	1550,31
1006,40	1523,69
1006,57	1521,64
1006,73	1531,88
1006,90	1546,22
1007,06	1619,94
1007,23	1535,98
1007,40	1488,87
1007,56	1505,26
1007,73	1542,12
1007,90	1505,26
1008,06	1552,36
1008,23	1542,12
1008,40	1560,55
1008,56	1507,30
1008,73	1568,74
1008,89	1531,88
1009,06	1636,33
1009,23	1501,16
1009,39	1595,37
1009,56	1515,50
1009,72	1552,36
1009,89	1585,13
1010,06	1638,38
1010,22	1507,30
1010,39	1540,07
1010,55	1581,03
1010,72	1609,70
1010,89	1505,26
1011,05	1656,81
1011,22	1462,25
1011,38	1478,63
1011,55	1611,75
1011,72	1533,93
1011,88	1542,12
1012,05	1615,85
1012,21	1617,90
1012,38	1558,50
1012,55	1591,27
1012,71	1423,34
1012,88	1630,18
1013,04	1613,80
1013,21	1521,64
1013,37	1548,26
1013,54	1513,45
1013,71	1540,07
1013,87	1519,59
1014,04	1548,26
1014,20	1585,13
1014,37	1558,50
1014,53	1595,37
1014,70	1505,26
1014,87	1517,54
1015,03	1574,89
1015,20	1556,46
1015,36	1529,83
1015,53	1538,02
1015,69	1652,71
1015,86	1517,54
1016,02	1550,31
1016,19	1572,84
1016,36	1548,26
1016,52	1578,98
1016,69	1570,79
1016,85	1587,18
1017,02	1542,12
1017,18	1566,70
1017,35	1515,50
1017,51	1509,35
1017,68	1673,19
1017,84	1468,39
1018,01	1554,41
1018,17	1597,42
1018,34	1691,62
1018,50	1511,40
1018,67	1517,54
1018,84	1611,75
1019,00	1499,11
1019,17	1566,70
1019,33	1570,79
1019,50	1632,23
1019,66	1669,09
1019,83	1521,64
1019,99	1669,09
1020,16	1488,87
1020,32	1550,31
1020,49	1595,37
1020,65	1533,93
1020,82	1568,74
1020,98	1552,36
1021,15	1603,56
1021,31	1591,27
1021,48	1519,59
1021,64	1507,30
1021,81	1552,36
1021,97	1445,87
1022,14	1542,12
1022,30	1507,30
1022,47	1601,51
1022,63	1566,70
1022,79	1593,32
1022,96	1507,30
1023,12	1581,03
1023,29	1486,83
1023,45	1667,05
1023,62	1624,04
1023,78	1527,78
1023,95	1585,13
1024,11	1550,31
1024,28	1525,74
1024,44	1581,03
1024,61	1456,11
1024,77	1497,07
1024,94	1554,41
1025,10	1589,22
1025,26	1482,73
1025,43	1595,37
1025,59	1546,22
1025,76	1615,85
1025,92	1554,41
1026,09	1495,02
1026,25	1697,77
1026,42	1456,11
1026,58	1507,30
1026,74	1591,27
1026,91	1548,26
1027,07	1529,83
1027,24	1628,14
1027,40	1595,37
1027,57	1523,69
1027,73	1488,87
1027,90	1634,28
1028,06	1507,30
1028,22	1548,26
1028,39	1529,83
1028,55	1576,94
1028,72	1515,50
1028,88	1619,94
1029,04	1624,04
1029,21	1556,46
1029,37	1566,70
1029,54	1566,70
1029,70	1566,70
1029,87	1497,07
1030,03	1505,26
1030,19	1642,47
1030,36	1476,59
1030,52	1486,83
1030,69	1523,69
1030,85	1484,78
1031,01	1583,08
1031,18	1589,22
1031,34	1621,99
1031,50	1560,55
1031,67	1552,36
1031,83	1632,23
1032,00	1521,64
1032,16	1517,54
1032,32	1503,21
1032,49	1630,18
1032,65	1591,27
1032,82	1591,27
1032,98	1505,26
1033,14	1560,55
1033,31	1554,41
1033,47	1679,33
1033,63	1511,40
1033,80	1535,98
1033,96	1564,65
1034,13	1603,56
1034,29	1566,70
1034,45	1492,97
1034,62	1576,94
1034,78	1566,70
1034,94	1533,93
1035,11	1615,85
1035,27	1480,68
1035,43	1656,81
1035,60	1519,59
1035,76	1492,97
1035,92	1523,69
1036,09	1495,02
1036,25	1574,89
1036,41	1593,32
1036,58	1605,61
1036,74	1615,85
1036,90	1425,39
1037,07	1509,35
1037,23	1542,12
1037,39	1603,56
1037,56	1501,16
1037,72	1574,89
1037,88	1560,55
1038,05	1482,73
1038,21	1544,17
1038,37	1583,08
1038,54	1587,18
1038,70	1607,66
1038,86	1585,13
1039,03	1527,78
1039,19	1529,83
1039,35	1499,11
1039,52	1503,21
1039,68	1529,83
1039,84	1484,78
1040,00	1591,27
1040,17	1480,68
1040,33	1642,47
1040,49	1546,22
1040,66	1466,35
1040,82	1527,78
1040,98	1544,17
1041,15	1576,94
1041,31	1517,54
1041,47	1566,70
1041,63	1441,77
1041,80	1556,46
1041,96	1648,61
1042,12	1515,50
1042,29	1535,98
1042,45	1644,52
1042,61	1509,35
1042,77	1599,46
1042,94	1644,52
1043,10	1730,53
1043,26	1593,32
1043,42	1515,50
1043,59	1568,74
1043,75	1497,07
1043,91	1566,70
1044,07	1507,30
1044,24	1585,13
1044,40	1632,23
>>>>>End Processed Spectral Data<<<<<
